osu file format v4

[General]
AudioFilename: 514 Seo Taiji - Ultramania.mp3
AudioLeadIn: 1511
AudioHash: f5fa5a369ad5572e0680cbfc985eb5cd
PreviewTime: 25872
Countdown: 0
SampleSet: Normal
EditorBookmarks: 25512,121744

[Metadata]
Title:Ultramania
Artist:Seo Taiji
Creator:EiJi
Version:Insane

[Difficulty]
HPDrainRate:7
CircleSize:5
OverallDifficulty:6
SliderMultiplier: 1.8
SliderTickRate: 4

[Events]
//Background and Video events
0,-100000,"stb.jpg"
//Break Periods
2,85350,89733
2,114625,119882
//Storyboard Layer 0 (Background)
//Storyboard Layer 1 (Failing)
//Storyboard Layer 2 (Passing)
//Storyboard Layer 3 (Foreground)
//Storyboard Sound Samples
//Background Colour Transformations
3,100,163,162,255

[TimingPoints]
914,361.44578313253,4,1,0,100
90932,722.89156626506,4,2,0,100
102859,361.44578313253,4,1,0,100

[HitObjects]
144,96,913,2,0,L|144:96|144:200,1,90
248,184,1456,2,0,L|248:184|248:72,1,90
352,88,1998,1,0
352,192,2359,6,0,L|352:192|240:192,1,90
248,296,2901,2,0,L|248:296|360:296,1,90
408,216,3444,1,0
416,104,3805,6,0,L|416:104|344:32,1,90
272,112,4347,2,0,L|272:112|344:184,1,90
256,192,4889,1,0
144,192,5251,5,0
144,192,5432,1,0
256,192,5793,12,0,6697
256,192,6877,1,0
344,128,7239,2,0,L|344:128|416:208,1,90
320,264,7781,1,0
224,320,8142,2,0,L|224:320|160:232,1,90
256,192,8685,12,0,9588
260,193,9769,1,0
256,192,9859,12,0,11034
256,192,11215,1,0
256,192,11576,1,0
256,192,11757,6,0,L|256:192|256:160,7,45
256,192,12480,6,0,L|256:192|320:264,1,90
400,192,13022,2,0,L|400:192|320:104,1,90
288,32,13564,1,0
224,120,13926,6,0,L|224:120|224:232,1,90
112,216,14468,2,0,L|112:216|112:96,1,90
216,128,15010,1,0
288,208,15371,6,0,L|288:208|368:288,1,90
432,200,15913,2,0,L|432:200|352:120,1,90
264,96,16456,1,0
184,168,16817,6,0,L|184:168|104:232,1,90
256,192,17359,12,0,18263
272,208,18444,1,0
272,208,18805,1,0
272,208,18986,1,0
272,208,19347,1,0
272,208,19709,1,0
272,208,19889,1,0
256,192,20251,12,0,21154
258,193,21335,1,0
256,192,21697,12,0,22600
256,192,22781,1,0
144,192,23142,1,0
144,192,23323,1,0
32,192,23685,1,0
256,192,24046,12,0,25492
360,160,25853,2,0,L|360:160|360:40|456:40,2,180
352,264,26938,2,0,L|352:264|224:264|224:112|136:112,2,360
352,152,28745,2,0,L|352:152|352:24,5,90
352,112,29829,2,0,L|352:112|144:112|8:216,2,360
456,128,31636,2,0,L|456:128|456:232,5,90
256,192,32721,12,0,33444
256,168,33624,2,0,L|256:168|256:56,2,90
256,192,34167,12,0,34889
288,208,35251,2,0,L|288:208|288:312,2,90
128,216,36154,6,0,L|128:216|128:328,1,90
128,144,36877,6,0,L|128:144|128:40,1,90
232,64,37420,6,0,L|232:64|232:200,1,135
296,152,37962,2,0,L|296:152|296:48,2,90
256,192,38504,12,0,39227
280,144,39407,2,0,L|280:144|352:88,2,90
280,200,39950,2,0,L|280:200|184:200|120:120,3,180
256,192,41395,12,0,42118
256,160,42299,2,0,L|256:160|256:56,2,90
360,168,43022,2,0,L|360:168|360:288,1,90
256,296,43564,2,0,L|256:296|56:296,1,180
256,192,44287,12,0,45010
288,152,45191,2,0,L|288:152|352:56|432:56,1,180
416,112,45733,2,0,L|416:112|416:232|352:264,3,180
256,192,47179,12,0,47901
224,160,48082,2,0,L|224:160|192:112|224:104|168:32,1,180
120,48,48624,2,0,L|120:48|24:88|40:88,2,90
256,192,49167,12,0,50070
296,152,50432,2,0,L|296:152|368:72|448:64,3,180
264,56,52058,2,0,L|264:56|168:104,2,90
264,112,52600,2,0,L|264:112|264:304,1,180
256,192,53142,12,0,53685
256,192,53685,12,0,54407
256,192,54425,12,0,55148
256,192,55130,12,0,55492
256,192,55492,12,0,55853
256,192,55853,12,0,56197
288,160,56576,2,0,L|288:160|408:56|280:16|112:32,1,450
88,144,57841,1,0
88,200,58022,2,0,L|88:200|152:328|376:280,1,360
416,264,58926,2,0,L|416:264|472:168,3,90
456,24,60010,6,0,L|456:24|360:24,1,90
200,40,60733,6,0,L|200:40|144:120,1,90
144,224,61275,6,0,L|144:224|208:344,1,135
288,344,61817,5,0
344,344,61998,1,0
400,344,62179,1,0
256,192,62359,12,0,63082
288,152,63263,2,0,L|288:152|352:80,2,90
256,192,63805,2,0,L|256:192|168:264|72:264,3,180
256,192,65251,12,0,65974
296,152,66154,2,0,L|296:152|360:72,2,90
240,248,66877,2,0,L|240:248|144:192,2,90
328,240,67600,2,0,L|328:240|376:136,2,90
256,192,68142,12,0,68865
256,192,69046,1,0
144,192,69407,1,0
144,192,69588,1,0
32,192,69950,1,0
32,296,70311,1,0
136,296,70673,1,0
256,192,71034,12,0,71757
256,192,71938,1,0
256,80,72299,2,0,L|256:80|128:80,2,90
256,192,72841,12,0,73203
256,192,73203,12,0,73564
256,192,73564,12,0,73926
256,192,73926,12,0,75733
256,192,75733,12,0,76095
256,192,76094,12,0,76455
256,192,76456,12,0,76818
256,192,76817,12,0,78624
256,192,78624,12,0,78986
256,192,78986,12,0,79347
256,192,79347,12,0,79709
256,192,79709,12,0,81516
256,192,81516,12,0,81877
256,192,81877,12,0,82239
256,192,82239,12,0,82600
256,192,82618,12,0,84425
256,192,84407,12,0,84769
256,192,84769,12,0,85112
432,112,90932,6,2,L|432:112|320:112,1,90
256,112,91817,1,2
224,112,91998,1,2
200,112,92179,1,2
176,112,92359,2,2,L|176:112|176:176,1,45
176,208,92901,6,2,L|176:208|264:288,1,90
272,272,93444,1,2
296,272,93624,1,2
320,272,93805,2,2,L|320:272|336:248,1,45
400,240,94347,5,2
416,216,94528,1,2
416,192,94709,1,2
416,168,94889,1,2
416,136,95070,2,2,L|416:136|448:96,2,45
392,128,95612,2,2,L|392:128|312:200,2,90
376,104,96516,2,2,L|376:104|352:80,4,45
352,112,97420,6,2,L|352:112|248:120,1,90
264,144,97962,1,2
264,224,98504,1,2
232,224,98685,1,2
208,224,98865,1,2
176,224,99046,1,2
144,224,99227,2,2,L|144:224|160:192,3,45
168,152,99950,6,2,L|168:152|168:120,1,45
144,104,100311,1,2
144,80,100492,1,2
168,80,100673,1,2
192,80,100853,1,2
272,80,101395,5,2
272,104,101576,1,2
296,104,101757,1,2
296,80,101938,1,2
320,80,102118,1,2
320,104,102299,1,2
344,104,102480,1,2
344,80,102660,1,2
400,88,102859,1,0
424,192,103220,5,0
312,192,103581,1,0
200,192,103943,1,0
88,192,104304,1,0
88,80,104666,1,0
192,80,105027,5,0
248,80,105208,1,0
304,80,105389,1,0
360,80,105569,1,0
360,136,105750,5,0
248,136,106112,2,0,L|248:136|64:136,1,180
64,240,106834,2,0,L|64:240|256:240,1,180
352,232,107557,2,0,L|352:232|352:32,1,180
240,56,108280,6,0,L|240:56|240:152,4,90
144,104,109365,1,0
192,200,109726,2,0,L|192:200|328:320,1,180
432,320,110449,1,0
432,208,110810,5,0
376,208,110991,1,0
376,152,111172,1,0
432,152,111352,1,0
400,104,111533,1,0
288,96,111895,5,0
280,184,112256,2,0,L|280:184|128:288,3,180
112,296,113431,1,0
88,296,113521,1,0
56,296,113612,1,0
56,272,113702,5,0
80,272,113792,1,0
104,272,113883,1,0
112,240,113973,5,0
88,240,114063,1,0
56,240,114154,1,0
56,216,114244,5,0
80,216,114334,1,0
104,216,114425,1,0
256,192,120931,5,0
256,192,121654,5,0
256,192,122377,5,0
392,72,123099,5,0
392,128,123280,1,0
296,72,123642,1,0
296,128,123822,1,0
192,96,124184,1,0
192,200,124545,5,0
192,256,124726,1,0
288,200,125087,1,0
288,256,125268,1,0
392,232,125630,1,0
392,72,125991,5,0
392,72,126172,1,0
280,72,126533,1,0
280,72,126714,1,0
168,72,127075,1,0
168,176,127437,5,0
168,232,127618,1,0
256,192,127979,12,0,128883
256,192,129063,1,0
144,192,129425,1,0
144,192,129605,1,0
144,80,129967,1,0
248,80,130328,2,0,L|248:80|368:80,1,90
256,192,130871,12,0,131774
256,192,131955,1,0
256,192,132136,12,0,132497
152,216,133220,2,0,L|152:216|152:320,1,90
256,312,133762,1,0
280,312,133852,2,0,L|280:312|328:312,8,45
280,280,134666,2,0,L|280:280|283:176,1,90
280,80,135208,6,0,L|280:80|160:80,1,90
280,144,135750,2,0,L|280:144|472:144,1,180
456,200,136292,1,0
448,304,136654,6,0,L|448:304|352:392,5,90
376,312,137738,1,0
376,200,138099,1,0
376,144,138280,6,0,L|376:144|376:40,3,90
320,56,139003,2,0,L|320:56|224:56,1,90
256,192,139365,12,0,140449
256,192,140630,1,0
144,192,140991,1,0
144,136,141172,1,0
256,136,141533,1,0
256,240,141895,1,0
200,240,142075,1,0
256,192,142256,12,0,143340
256,192,143521,1,0
256,192,143702,12,0,144786
248,192,144967,1,0
248,80,145328,2,0,L|248:80|152:144,1,90
80,184,145871,1,0
256,192,146232,12,0,148039
