osu file format v4

[General]
AudioFilename: 514 Seo Taiji - Ultramania.mp3
AudioLeadIn: 1478
AudioHash: f5fa5a369ad5572e0680cbfc985eb5cd
PreviewTime: 25872
Countdown: 0
SampleSet: Normal
EditorBookmarks: 25512,121744

[Metadata]
Title:Ultramania
Artist:Seo Taiji
Creator:EiJi
Version:Hard

[Difficulty]
HPDrainRate:5
CircleSize:5
OverallDifficulty:5
SliderMultiplier: 0.999999999999999
SliderTickRate: 2

[Events]
//Background and Video events
0,-100000,"stb.jpg"
//Break Periods
2,85712,89373
2,114625,119731
//Storyboard Layer 0 (Background)
//Storyboard Layer 1 (Failing)
//Storyboard Layer 2 (Passing)
//Storyboard Layer 3 (Foreground)
//Storyboard Sound Samples
//Background Colour Transformations
3,100,163,162,255

[TimingPoints]
914,361.44578313253,4,1,0,100
90932,722.89156626506,4,2,0,100
102859,361.44578313253,4,1,0,100

[HitObjects]
80,192,913,1,0
176,192,1636,1,0
176,144,1998,1,0
176,96,2359,1,0
272,96,3082,5,0
272,144,3444,1,0
272,192,3805,1,0
368,192,4528,5,0
368,144,4889,1,0
368,96,5251,1,0
264,96,5974,6,0,B|264:96|40:96,1,200
64,192,7420,5,0
64,240,7781,1,0
64,288,8142,1,0
160,288,8865,6,0,B|160:288|160:80,1,200
256,96,10311,6,0,B|256:96|256:312,1,200
352,296,11757,6,0,B|352:296|352:256,8,25
352,192,13203,6,0,B|352:192|352:304,2,99.9999999999999
248,200,14648,6,0,B|248:200|128:200,2,99.9999999999999
248,96,16094,5,0
296,96,16456,2,0,B|296:96|408:96,1,99.9999999999999
392,192,17540,2,0,B|392:192|288:384,1,200
192,368,18986,5,0
144,368,19347,1,0
96,368,19709,1,0
96,368,19889,5,0
96,288,20432,6,0,B|96:288|104:72,1,200
200,96,21877,6,0,B|200:96|416:104,1,200
400,200,23323,1,0
400,248,23685,1,0
104,208,25853,5,0
152,208,26215,1,0
200,208,26576,1,0
200,160,26938,6,0,B|200:160|-8:160,2,200
248,160,28745,6,0,B|248:160|248:224,5,50
248,232,29829,6,0,B|248:232|32:232,2,200
296,232,31636,6,0,B|296:232|360:232,4,50
296,184,32721,6,0,B|296:184|520:184,1,200
496,184,33624,5,0
496,184,33805,1,0
496,136,34167,6,0,B|496:136|280:136,1,200
248,136,35251,6,0,B|248:136|176:136,2,50
320,136,36154,5,0
320,136,36335,1,0
320,208,36877,5,0
320,208,37058,1,0
320,256,37420,5,0
320,256,37600,1,0
320,304,37962,6,0,B|320:304|248:304,3,50
168,304,39227,5,0
168,280,39407,5,0
144,280,39588,5,0
144,304,39769,5,0
136,328,39950,6,0,B|136:328|248:328,4,99.9999999999999
136,224,42118,6,0,B|136:224|192:224,3,50
192,176,43022,5,0
192,176,43203,1,0
192,128,43564,5,0
192,80,43926,1,0
192,32,44287,1,0
288,40,45010,5,0
288,40,45191,1,0
288,88,45552,5,0
288,88,45733,1,0
288,136,46094,5,0
288,184,46456,1,0
288,232,46817,1,0
288,280,47179,1,0
184,280,47901,6,0,B|184:280|112:280,6,50
232,136,50070,6,0,B|232:136|344:136,2,99.9999999999999
232,184,51154,1,0
232,232,51516,1,0
232,304,52058,5,0
256,304,52239,5,0
256,328,52420,5,0
232,328,52600,5,0
184,328,52962,6,0,B|184:328|72:328,1,99.9999999999999
80,280,53685,5,0
80,240,53956,1,0
80,200,54227,2,0,B|80:200|136:200,3,50
80,112,55492,6,0,B|80:112|136:112,6,50
80,208,57299,6,0,B|80:208|152:208,4,50
80,304,58745,6,0,B|80:304|144:304,4,50
80,224,60010,6,0,B|80:224|136:224,1,50
208,224,60733,6,0,B|208:224|272:224,1,50
304,224,61275,6,0,B|304:224|368:224,1,50
432,224,61998,6,0,B|432:224|432:112,1,99.9999999999999
328,120,63082,5,0
328,120,63263,1,0
328,120,63444,2,0,B|328:120|328:232,5,99.9999999999999
224,224,65974,6,0,B|224:224|288:224,3,50
320,224,66877,6,0,B|320:224|320:288,2,50
368,224,67600,6,0,B|368:224|440:224,3,50
416,120,68865,5,0
416,120,69046,1,0
368,120,69407,5,0
368,120,69588,1,0
320,120,69950,5,0
272,120,70311,1,0
224,120,70673,1,0
176,120,71034,1,0
72,120,71757,5,0
72,120,71938,1,0
72,168,72299,5,0
72,168,72480,5,0
72,168,72660,5,0
72,168,72841,5,0
256,192,73926,12,0,85492
456,192,90932,5,2
352,192,91293,1,2
200,192,91835,6,2,B|200:192|200:240,4,25
296,192,92919,6,2,B|296:192|224:192,1,50
248,144,93462,6,2,B|248:144|248:112,3,25
248,216,94365,5,2
248,312,94727,6,2,B|248:312|272:312,5,25
168,312,95992,5,2
168,208,96353,1,2
168,104,96715,1,2
168,104,96895,5,2
168,104,97076,5,2
264,104,97438,5,2
312,104,97618,2,2,B|312:104|384:104,1,50
312,248,98522,6,2,B|312:248|312:280,5,25
208,272,99787,5,2
104,272,100148,6,2,B|104:272|128:272,3,25
256,192,101233,12,4,102859
256,192,103220,5,4
256,144,103581,1,4
304,144,103943,1,4
304,96,104304,1,4
352,96,104666,1,4
400,96,105027,6,0,B|400:96|400:160,4,50
400,144,106112,5,4
400,192,106473,1,4
352,192,106834,1,4
352,240,107196,1,4
304,240,107557,1,4
256,240,107919,6,0,B|256:240|192:240,4,50
256,192,109003,5,4
256,144,109365,1,4
208,144,109726,1,4
160,144,110087,1,4
160,192,110449,1,4
160,240,110810,6,0,B|160:240|160:304,4,50
208,240,111895,5,4
256,240,112256,1,4
304,240,112618,1,4
352,240,112979,6,4,B|352:240|352:208,16,25
160,192,120931,6,4,B|160:192|376:192,3,200
376,96,123822,5,0
328,96,124184,1,0
280,96,124545,1,0
280,192,125268,5,0
328,192,125630,1,0
376,192,125991,1,0
384,88,126714,5,0
352,128,127075,1,0
328,168,127437,1,0
328,264,128160,6,0,B|328:264|120:264,1,200
128,160,129605,5,0
128,208,129967,1,0
128,256,130328,1,0
224,256,131051,6,0,B|224:256|432:256,1,200
424,152,132497,6,0,B|424:152|216:152,1,200
120,160,133943,6,0,B|120:160|160:160,8,25
120,256,135389,5,0
168,256,135750,1,0
216,256,136112,5,0
216,256,136292,1,0
264,256,136654,5,0
264,256,136834,1,0
312,256,137196,5,0
360,256,137557,5,0
360,256,137738,1,0
408,256,138099,5,0
408,256,138280,1,0
408,208,138642,5,0
360,208,139003,5,0
360,208,139184,1,0
312,208,139545,5,0
312,208,139726,2,0,B|312:208|104:208,1,200
112,104,141172,5,0
160,104,141533,1,0
208,104,141895,1,0
208,200,142618,6,0,B|208:200|416:200,1,200
408,96,144063,6,0,B|408:96|200:96,1,200
216,192,145509,5,0
216,240,145871,1,0
256,192,146232,12,0,148039
