osu file format v14

[General]
AudioFilename: audio.mp3
AudioLeadIn: 0
PreviewTime: 52157
Countdown: 0
SampleSet: Soft
StackLeniency: 0.7
Mode: 3
LetterboxInBreaks: 0
SpecialStyle: 0
WidescreenStoryboard: 1

[Editor]
Bookmarks: 92470
DistanceSpacing: 1.1
BeatDivisor: 12
GridSize: 32
TimelineZoom: 2.999998

[Metadata]
Title:POLKAMANIA
TitleUnicode:POLꞰAMAИIA
Artist:Camellia feat. Nanahira
ArtistUnicode:かめりあ feat. ななひら
Creator:Rhezie
Version:EXTRAMANIA
Source:beatmania IIDX 28 BISTROVER
Tags:masaya oya 大箭将也 かめるかめりあ kamelcamellia cametek ポルカ2020 polka2020 konami bemani ULTIMATE MOBILE dubcore hardcore electronic japanese syadow- cryochan al-reina famoss
BeatmapID:3227929
BeatmapSetID:1580868

[Difficulty]
HPDrainRate:8.5
CircleSize:4
OverallDifficulty:8.3
ApproachRate:5
SliderMultiplier:1.4
SliderTickRate:1

[Events]
//Background and Video events
0,0,"BG.jpg",0,0
//Break Periods
//Storyboard Layer 0 (Background)
//Storyboard Layer 1 (Fail)
//Storyboard Layer 2 (Pass)
//Storyboard Layer 3 (Foreground)
//Storyboard Layer 4 (Overlay)
//Storyboard Sound Samples

[TimingPoints]
220,375,4,2,1,70,1,0
52720,-100,4,2,1,70,0,1
64720,-100,4,2,1,70,0,0
77470,375,4,2,1,70,1,0


[HitObjects]
320,192,970,5,0,0:0:0:0:
448,192,970,128,0,1157:0:0:0:0:
64,192,1016,1,0,0:0:0:0:
320,192,1204,128,0,1274:0:0:0:0:
64,192,1274,128,0,1321:0:0:0:0:
192,192,1321,128,0,1368:0:0:0:0:
448,192,1368,128,0,1438:0:0:0:0:
320,192,1462,128,0,1532:0:0:0:0:
192,192,1579,128,0,1673:0:0:0:0:
64,192,1720,128,0,3595:0:0:0:0:
448,192,1907,128,0,2095:0:0:0:0:
320,192,2095,128,0,2188:0:0:0:0:
448,192,2188,128,0,2282:0:0:0:0:
192,192,2282,128,0,3595:0:0:0:0:
448,192,2657,128,0,3595:0:0:0:0:
320,192,3595,1,0,0:0:0:0:
64,192,4157,1,0,0:0:0:0:
192,192,4345,1,0,0:0:0:0:
320,192,4532,1,0,0:0:0:0:
64,192,4720,1,0,0:0:0:50:LR_Kick Beat Med Vfast.wav
192,192,4720,1,0,0:0:0:50:LR_CymbalSSD.wav
448,192,4720,1,0,0:0:0:0:
320,192,4907,1,0,0:0:0:70:LR_Drum Rim Fast.wav
64,192,5095,1,0,0:0:0:50:LR_Kick Beat Med Vfast.wav
448,192,5095,1,0,0:0:0:0:
320,192,5282,1,0,0:0:0:70:LR_Drum Rim Fast.wav
64,192,5470,1,0,0:0:0:50:LR_Kick Beat Med Vfast.wav
192,192,5470,1,0,0:0:0:0:
448,192,5657,1,0,0:0:0:70:LR_Drum Rim Fast.wav
192,192,5845,1,0,0:0:0:50:LR_Kick Beat Med Vfast.wav
320,192,5845,1,0,0:0:0:0:
192,192,6032,1,0,0:0:0:70:LR_Drum Rim Fast.wav
320,192,6220,1,0,0:0:0:50:LR_Kick Beat Med Vfast.wav
448,192,6220,1,0,0:0:0:0:
192,192,6407,1,0,0:0:0:70:LR_Drum Rim Fast.wav
320,192,6501,1,0,0:0:0:0:
64,192,6595,1,0,0:0:0:50:LR_Kick Beat Med Vfast.wav
448,192,6595,1,0,0:0:0:0:
192,192,6688,1,0,0:0:0:0:
320,192,6782,1,0,0:0:0:70:LR_Drum Rim Fast.wav
64,192,6876,1,0,0:0:0:0:
320,192,6970,1,0,0:0:0:50:LR_Kick Beat Med Vfast.wav
448,192,6970,1,0,0:0:0:0:
192,192,7157,1,0,0:0:0:70:LR_Drum Rim Fast.wav
64,192,7345,1,0,0:0:0:50:LR_Kick Beat Med Vfast.wav
448,192,7345,128,0,7720:0:0:0:0:
320,192,7438,1,0,0:0:0:0:
192,192,7532,1,0,0:0:0:70:LR_Drum Rim Fast.wav
320,192,7626,1,0,0:0:0:0:
64,192,7720,1,0,0:0:0:50:LR_Kick Beat Med Vfast.wav
192,192,7720,1,0,0:0:0:0:
320,192,7907,1,0,0:0:0:70:LR_Drum Rim Fast.wav
64,192,8095,1,0,0:0:0:50:LR_Kick Beat Med Vfast.wav
320,192,8095,1,0,0:0:0:0:
192,192,8282,1,0,0:0:0:70:LR_Drum Rim Fast.wav
192,192,8470,1,0,0:0:0:50:LR_Kick Beat Med Vfast.wav
448,192,8470,1,0,0:0:0:0:
320,192,8657,1,0,0:0:0:70:LR_Drum Rim Fast.wav
64,192,8845,1,0,0:0:0:50:LR_Kick Beat Med Vfast.wav
192,192,8845,1,0,0:0:0:0:
64,192,9032,1,0,0:0:0:70:LR_Drum Rim Fast.wav
320,192,9220,1,0,0:0:0:50:LR_Kick Beat Med Vfast.wav
448,192,9220,1,0,0:0:0:0:
192,192,9407,1,0,0:0:0:70:LR_Drum Rim Fast.wav
320,192,9501,1,0,0:0:0:0:
192,192,9595,1,0,0:0:0:50:LR_Kick Beat Med Vfast.wav
448,192,9595,1,0,0:0:0:0:
320,192,9782,1,0,0:0:0:70:LR_Drum Rim Fast.wav
192,192,9876,1,0,0:0:0:0:
64,192,9970,1,0,0:0:0:50:LR_Kick Beat Med Vfast.wav
320,192,9970,1,0,0:0:0:0:
192,192,10157,1,0,0:0:0:70:LR_Drum Rim Fast.wav
448,192,10251,1,0,0:0:0:70:LR_Drum Rim Fast.wav
64,192,10345,1,0,0:0:0:50:LR_Kick Beat Med Vfast.wav
192,192,10345,1,0,0:0:0:0:
320,192,10438,1,0,0:0:0:70:LR_Drum Rim Fast.wav
448,192,10438,1,0,0:0:0:0:
64,192,10532,1,0,0:0:0:70:LR_Drum Rim Fast.wav
192,192,10532,1,0,0:0:0:0:
64,192,10720,1,0,0:0:0:50:LR_Kick Beat Med Vfast.wav
320,192,10720,1,0,0:0:0:50:LR_CymbalSSD.wav
448,192,10720,1,0,0:0:0:0:
192,192,10907,1,0,0:0:0:70:LR_Drum Rim Fast.wav
64,192,11095,1,0,0:0:0:50:LR_Kick Beat Med Vfast.wav
320,192,11095,1,0,0:0:0:0:
192,192,11282,1,0,0:0:0:70:LR_Drum Rim Fast.wav
320,192,11470,1,0,0:0:0:50:LR_Kick Beat Med Vfast.wav
448,192,11470,1,0,0:0:0:0:
64,192,11657,1,0,0:0:0:70:LR_Drum Rim Fast.wav
192,192,11845,1,0,0:0:0:50:LR_Kick Beat Med Vfast.wav
448,192,11845,1,0,0:0:0:0:
448,192,12032,1,0,0:0:0:70:LR_Drum Rim Fast.wav
64,192,12220,1,0,0:0:0:50:LR_Kick Beat Med Vfast.wav
192,192,12220,1,0,0:0:0:0:
448,192,12407,1,0,0:0:0:70:LR_Drum Rim Fast.wav
64,192,12595,1,0,0:0:0:50:LR_Kick Beat Med Vfast.wav
320,192,12595,1,0,0:0:0:0:
448,192,12688,1,0,0:0:0:0:
192,192,12782,1,0,0:0:0:70:LR_Drum Rim Fast.wav
320,192,12876,1,0,0:0:0:0:
64,192,12970,1,0,0:0:0:50:LR_Kick Beat Med Vfast.wav
192,192,12970,1,0,0:0:0:0:
320,192,13157,1,0,0:0:0:70:LR_Drum Rim Fast.wav
64,192,13345,128,0,13720:0:0:0:50:LR_Kick Beat Med Vfast.wav
448,192,13345,1,0,0:0:0:0:
192,192,13438,1,0,0:0:0:0:
320,192,13532,1,0,0:0:0:70:LR_Drum Rim Fast.wav
192,192,13626,1,0,0:0:0:0:
320,192,13720,1,0,0:0:0:50:LR_Kick Beat Med Vfast.wav
448,192,13720,1,0,0:0:0:0:
448,192,13813,1,0,0:0:0:0:
64,192,13907,1,0,0:0:0:70:LR_Drum Rim Fast.wav
192,192,13907,1,0,0:0:0:0:
192,192,14001,1,0,0:0:0:0:
320,192,14095,1,0,0:0:0:50:LR_Kick Beat Med Vfast.wav
448,192,14095,1,0,0:0:0:0:
320,192,14188,1,0,0:0:0:0:
64,192,14282,1,0,0:0:0:70:LR_Drum Rim Fast.wav
192,192,14282,1,0,0:0:0:0:
64,192,14376,1,0,0:0:0:0:
320,192,14470,1,0,0:0:0:50:LR_Kick Beat Med Vfast.wav
448,192,14470,1,0,0:0:0:0:
448,192,14563,1,0,0:0:0:0:
64,192,14657,1,0,0:0:0:70:LR_Drum Rim Fast.wav
192,192,14657,1,0,0:0:0:0:
64,192,14751,1,0,0:0:0:70:LR_Drum Rim Fast.wav
192,192,14751,1,0,0:0:0:0:
320,192,14845,1,0,0:0:0:50:LR_Kick Beat Med Vfast.wav
448,192,14845,1,0,0:0:0:0:
320,192,14938,1,0,0:0:0:70:LR_Drum Rim Fast.wav
448,192,14938,1,0,0:0:0:0:
64,192,15032,1,0,0:0:0:70:LR_Drum Rim Fast.wav
192,192,15032,1,0,0:0:0:0:
320,192,15126,1,0,0:0:0:70:LR_Drum Rim Fast.wav
448,192,15126,1,0,0:0:0:0:
64,192,15220,1,2,0:0:0:0:
192,192,15220,1,0,0:0:0:50:LR_CymbalSSD.wav
448,192,15220,128,0,15313:0:0:0:0:
320,192,15313,128,0,15407:0:0:0:0:
64,192,15407,128,0,15501:0:0:0:0:
192,192,15501,128,0,15595:0:0:0:0:
64,192,15595,1,0,0:0:0:0:
448,192,15595,1,0,0:0:0:0:
320,192,15641,1,0,0:0:0:0:
192,192,15688,1,0,0:0:0:0:
448,192,15735,1,0,0:0:0:0:
320,192,15782,1,0,0:0:0:0:
64,192,15876,1,2,0:0:0:0:
192,192,15876,1,0,0:0:0:0:
448,192,15923,1,2,0:0:0:0:
64,192,15970,1,8,0:0:0:0:
192,192,15970,1,0,0:0:0:0:
320,192,15970,1,0,0:0:0:0:
448,192,16063,1,0,0:0:0:0:
64,192,16157,1,2,0:0:0:0:
192,192,16157,1,0,0:0:0:0:
64,192,16251,1,8,0:0:0:0:
320,192,16251,1,0,0:0:0:0:
448,192,16251,1,0,0:0:0:0:
192,192,16345,1,0,0:0:0:0:
320,192,16438,1,2,0:0:0:0:
448,192,16438,1,0,0:0:0:0:
64,192,16532,1,8,0:0:0:0:
192,192,16532,1,0,0:0:0:0:
448,192,16532,1,0,0:0:0:0:
192,192,16626,1,2,0:0:0:0:
320,192,16626,1,0,0:0:0:0:
64,192,16720,1,2,0:0:0:0:
320,192,16720,1,4,0:0:0:0:
448,192,16720,1,0,0:0:0:0:
192,192,16907,1,0,0:0:0:0:
320,192,17001,1,0,0:0:0:0:
64,192,17095,128,0,17188:0:0:0:0:
448,192,17095,128,0,17188:0:0:0:0:
64,192,17282,128,0,17376:0:0:0:0:
448,192,17282,128,0,17376:0:0:0:0:
64,192,17470,1,8,0:0:0:0:
192,192,17470,1,0,0:0:0:0:
448,192,17470,1,0,0:0:0:0:
320,192,17563,1,0,0:0:0:0:
64,192,17657,128,0,17751:0:0:0:0:
192,192,17657,128,0,17751:0:0:0:0:
192,192,17845,128,0,17938:0:0:0:0:
320,192,17845,128,0,17938:0:0:0:0:
320,192,18032,128,0,18126:0:0:0:0:
448,192,18032,128,0,18126:0:0:0:0:
64,192,18220,1,2,0:0:0:0:
448,192,18220,1,0,0:0:0:0:
320,192,18407,1,0,0:0:0:0:
64,192,18501,1,0,0:0:0:0:
320,192,18595,128,0,18688:0:0:0:0:
448,192,18595,128,0,18688:0:0:0:0:
320,192,18782,128,0,18876:0:0:0:0:
448,192,18782,128,0,18876:0:0:0:0:
64,192,18970,1,8,0:0:0:0:
320,192,18970,1,0,0:0:0:0:
448,192,18970,1,0,0:0:0:0:
192,192,19063,1,0,0:0:0:0:
64,192,19157,128,0,19251:0:0:0:0:
320,192,19157,128,0,19251:0:0:0:0:
64,192,19345,128,0,19438:0:0:0:0:
448,192,19345,128,0,19438:0:0:0:0:
192,192,19532,128,0,19626:0:0:0:0:
448,192,19532,128,0,19626:0:0:0:0:
192,192,19720,1,2,0:0:0:0:
320,192,19720,1,0,0:0:0:0:
64,192,19907,1,0,0:0:0:0:
448,192,20001,1,0,0:0:0:0:
192,192,20095,128,0,20188:0:0:0:0:
320,192,20095,128,0,20188:0:0:0:0:
192,192,20282,128,0,20376:0:0:0:0:
320,192,20282,128,0,20376:0:0:0:0:
64,192,20470,1,8,0:0:0:0:
192,192,20470,1,0,0:0:0:0:
320,192,20470,1,0,0:0:0:0:
448,192,20563,1,0,0:0:0:0:
64,192,20657,128,0,20751:0:0:0:0:
192,192,20657,128,0,20751:0:0:0:0:
192,192,20845,128,0,20938:0:0:0:0:
320,192,20845,128,0,20938:0:0:0:0:
320,192,21032,128,0,21126:0:0:0:0:
448,192,21032,128,0,21126:0:0:0:0:
64,192,21220,1,2,0:0:0:0:
448,192,21220,1,0,0:0:0:0:
192,192,21313,1,0,0:0:0:0:
320,192,21313,1,0,0:0:0:0:
64,192,21407,1,0,0:0:0:0:
448,192,21501,1,0,0:0:0:0:
64,192,21595,128,0,21688:0:0:0:0:
192,192,21595,128,0,21688:0:0:0:0:
64,192,21782,128,0,21876:0:0:0:0:
192,192,21782,128,0,21876:0:0:0:0:
64,192,21970,1,8,0:0:0:0:
192,192,21970,1,0,0:0:0:0:
448,192,21970,128,0,22157:0:0:0:0:
192,192,22063,128,0,22157:0:0:0:0:
192,192,22251,128,0,22345:0:0:0:0:
320,192,22345,128,0,22438:0:0:0:0:
448,192,22345,128,0,22438:0:0:0:0:
64,192,22532,128,0,22626:0:0:0:0:
192,192,22532,128,0,22720:0:0:0:0:
64,192,22720,1,4,0:0:0:0:
320,192,22720,1,2,0:0:0:0:
448,192,22720,1,0,0:0:0:0:
192,192,22813,1,0,0:0:0:0:
320,192,22907,1,2,0:0:0:0:
448,192,22907,1,0,0:0:0:0:
192,192,23001,1,0,0:0:0:0:
320,192,23095,1,2,0:0:0:0:
448,192,23095,1,0,0:0:0:0:
192,192,23188,1,0,0:0:0:0:
320,192,23282,1,2,0:0:0:0:
448,192,23282,1,0,0:0:0:0:
192,192,23376,1,0,0:0:0:0:
320,192,23470,1,2,0:0:0:0:
448,192,23470,1,0,0:0:0:0:
192,192,23563,1,0,0:0:0:0:
320,192,23657,1,2,0:0:0:0:
448,192,23657,1,0,0:0:0:0:
192,192,23751,1,0,0:0:0:0:
320,192,23845,1,2,0:0:0:0:
448,192,23845,1,0,0:0:0:0:
192,192,23938,1,0,0:0:0:0:
320,192,24032,1,2,0:0:0:0:
448,192,24032,1,0,0:0:0:0:
192,192,24079,1,2,0:0:0:0:
64,192,24126,1,2,0:0:0:0:
320,192,24173,1,2,0:0:0:0:
64,192,24220,1,2,0:0:0:0:
192,192,24220,1,0,0:0:0:0:
448,192,24313,1,0,0:0:0:0:
64,192,24407,1,2,0:0:0:0:
192,192,24407,1,0,0:0:0:0:
448,192,24501,1,0,0:0:0:0:
64,192,24595,1,2,0:0:0:0:
192,192,24595,1,0,0:0:0:0:
448,192,24688,1,0,0:0:0:0:
64,192,24782,1,2,0:0:0:0:
192,192,24782,1,0,0:0:0:0:
448,192,24876,1,0,0:0:0:0:
64,192,24970,1,2,0:0:0:0:
192,192,24970,1,0,0:0:0:0:
448,192,25063,1,0,0:0:0:0:
64,192,25157,1,2,0:0:0:0:
192,192,25157,1,0,0:0:0:0:
448,192,25251,1,0,0:0:0:0:
64,192,25345,1,2,0:0:0:0:
192,192,25345,1,0,0:0:0:0:
448,192,25438,1,0,0:0:0:0:
64,192,25532,1,2,0:0:0:0:
192,192,25532,1,0,0:0:0:0:
448,192,25579,1,2,0:0:0:0:
320,192,25626,1,2,0:0:0:0:
192,192,25673,1,2,0:0:0:0:
320,192,25720,1,2,0:0:0:0:
448,192,25720,1,4,0:0:0:0:
64,192,25813,1,2,0:0:0:0:
192,192,25813,1,0,0:0:0:0:
320,192,25907,1,2,0:0:0:0:
448,192,25907,1,0,0:0:0:0:
64,192,26001,1,2,0:0:0:0:
192,192,26001,1,0,0:0:0:0:
192,192,26095,1,2,0:0:0:0:
320,192,26095,1,0,0:0:0:0:
448,192,26095,1,0,0:0:0:0:
320,192,26188,1,2,0:0:0:0:
448,192,26188,1,0,0:0:0:0:
64,192,26282,1,2,0:0:0:0:
192,192,26282,1,0,0:0:0:0:
320,192,26376,1,2,0:0:0:0:
448,192,26376,1,0,0:0:0:0:
64,192,26470,1,2,0:0:0:0:
192,192,26470,1,0,0:0:0:0:
320,192,26470,1,0,0:0:0:0:
64,192,26563,1,2,0:0:0:0:
192,192,26563,1,0,0:0:0:0:
320,192,26657,1,2,0:0:0:0:
448,192,26657,1,0,0:0:0:0:
64,192,26751,1,2,0:0:0:0:
192,192,26751,1,0,0:0:0:0:
192,192,26845,1,2,0:0:0:0:
320,192,26845,1,0,0:0:0:0:
448,192,26845,1,0,0:0:0:0:
320,192,26938,1,2,0:0:0:0:
448,192,26938,1,0,0:0:0:0:
64,192,27032,1,2,0:0:0:0:
192,192,27032,1,0,0:0:0:0:
320,192,27126,1,2,0:0:0:0:
448,192,27126,1,0,0:0:0:0:
64,192,27220,1,2,0:0:0:0:
192,192,27220,1,0,0:0:0:0:
448,192,27407,128,0,27501:0:0:0:0:
448,192,27595,128,0,27688:0:0:0:0:
448,192,27782,128,0,27876:0:0:0:0:
64,192,27970,128,0,28532:0:0:0:0:
448,192,27970,128,0,28157:0:0:0:0:
192,192,28157,128,0,28345:0:0:0:0:
320,192,28345,128,0,28532:0:0:0:0:
448,192,28532,1,0,0:0:0:0:
192,192,28720,128,2,28845:0:0:0:0:
320,192,28720,128,4,28813:0:0:0:0:
448,192,28720,128,0,28782:0:0:0:0:
64,192,28813,128,0,28876:0:0:0:0:
448,192,28876,128,0,28970:0:0:0:0:
320,192,28907,128,0,29001:0:0:0:0:
192,192,28938,128,0,29032:0:0:0:0:
64,192,28970,128,0,29063:0:0:0:0:
320,192,29095,1,2,0:0:0:0:
448,192,29095,1,0,0:0:0:0:
64,192,29141,1,0,0:0:0:0:
320,192,29188,1,0,0:0:0:0:
192,192,29235,1,0,0:0:0:0:
448,192,29282,1,0,0:0:0:0:
320,192,29470,1,2,0:0:0:0:
448,192,29470,1,0,0:0:0:0:
64,192,29516,1,0,0:0:0:0:
448,192,29563,1,0,0:0:0:0:
192,192,29610,1,0,0:0:0:0:
320,192,29657,1,0,0:0:0:0:
320,192,29845,1,2,0:0:0:0:
448,192,29845,1,0,0:0:0:0:
192,192,29891,1,0,0:0:0:0:
448,192,29938,1,0,0:0:0:0:
64,192,29985,1,0,0:0:0:0:
320,192,30032,1,0,0:0:0:0:
320,192,30126,1,0,0:0:0:0:
64,192,30220,128,2,30337:0:0:0:0:
448,192,30220,1,0,0:0:0:0:
192,192,30266,128,0,30360:0:0:0:0:
320,192,30313,128,0,30384:0:0:0:0:
448,192,30360,128,0,30407:0:0:0:0:
64,192,30407,1,0,0:0:0:0:
64,192,30501,1,0,0:0:0:0:
192,192,30595,1,2,0:0:0:0:
320,192,30595,1,0,0:0:0:0:
448,192,30688,1,0,0:0:0:0:
448,192,30782,128,0,30876:0:0:0:0:
320,192,30829,128,0,30876:0:0:0:0:
64,192,30876,1,0,0:0:0:0:
192,192,30970,1,2,0:0:0:0:
320,192,30970,1,0,0:0:0:0:
448,192,31063,128,0,31157:0:0:0:0:
320,192,31110,128,0,31157:0:0:0:0:
64,192,31157,1,0,0:0:0:0:
192,192,31251,1,2,0:0:0:0:
320,192,31251,1,0,0:0:0:0:
448,192,31345,128,0,31438:0:0:0:0:
320,192,31391,128,0,31438:0:0:0:0:
64,192,31438,1,0,0:0:0:0:
192,192,31532,1,2,0:0:0:0:
320,192,31532,1,0,0:0:0:0:
448,192,31626,1,0,0:0:0:0:
64,192,31720,128,2,31782:0:0:0:0:
192,192,31720,128,0,31813:0:0:0:0:
320,192,31720,128,0,31845:0:0:0:0:
448,192,31813,128,0,31876:0:0:0:0:
64,192,31876,128,0,31970:0:0:0:0:
192,192,31907,128,0,32001:0:0:0:0:
320,192,31938,128,0,32032:0:0:0:0:
448,192,31970,128,0,32063:0:0:0:0:
64,192,32095,1,2,0:0:0:0:
192,192,32095,1,0,0:0:0:0:
320,192,32141,1,0,0:0:0:0:
64,192,32188,1,0,0:0:0:0:
448,192,32235,1,0,0:0:0:0:
192,192,32282,1,0,0:0:0:0:
64,192,32470,1,2,0:0:0:0:
192,192,32470,1,0,0:0:0:0:
320,192,32516,1,0,0:0:0:0:
192,192,32563,1,0,0:0:0:0:
448,192,32610,1,0,0:0:0:0:
64,192,32657,1,0,0:0:0:0:
64,192,32845,1,2,0:0:0:0:
192,192,32845,1,0,0:0:0:0:
448,192,32891,1,0,0:0:0:0:
64,192,32938,1,0,0:0:0:0:
320,192,32985,1,0,0:0:0:0:
192,192,33032,1,0,0:0:0:0:
192,192,33126,1,0,0:0:0:0:
320,192,33220,128,2,33266:0:0:0:0:
448,192,33220,128,0,33313:0:0:0:0:
64,192,33266,128,0,33313:0:0:0:0:
192,192,33313,128,0,33407:0:0:0:0:
448,192,33407,128,0,33501:0:0:0:0:
320,192,33501,128,0,33595:0:0:0:0:
64,192,33595,128,2,33688:0:0:0:0:
192,192,33595,128,0,33641:0:0:0:0:
448,192,33641,128,0,33688:0:0:0:0:
320,192,33688,128,0,33782:0:0:0:0:
192,192,33782,128,0,33876:0:0:0:0:
448,192,33876,128,0,33970:0:0:0:0:
64,192,33970,128,2,34063:0:0:0:0:
320,192,33970,128,0,34063:0:0:0:0:
192,192,34063,128,0,34157:0:0:0:0:
448,192,34157,128,0,34251:0:0:0:0:
64,192,34251,128,2,34345:0:0:0:0:
192,192,34251,128,0,34345:0:0:0:0:
320,192,34345,128,2,34438:0:0:0:0:
448,192,34345,128,0,34438:0:0:0:0:
64,192,34438,128,0,34532:0:0:0:0:
192,192,34532,128,2,34626:0:0:0:0:
320,192,34532,128,0,34626:0:0:0:0:
448,192,34626,1,0,0:0:0:0:
64,192,34673,1,0,0:0:0:0:
192,192,34720,128,2,34845:0:0:0:0:
320,192,34720,128,4,34813:0:0:0:0:
448,192,34720,128,0,34782:0:0:0:0:
64,192,34813,128,0,34876:0:0:0:0:
448,192,34876,128,0,34970:0:0:0:0:
320,192,34907,128,0,35001:0:0:0:0:
192,192,34938,128,0,35032:0:0:0:0:
64,192,34970,128,0,35063:0:0:0:0:
320,192,35095,1,2,0:0:0:0:
448,192,35095,1,0,0:0:0:0:
192,192,35141,1,0,0:0:0:0:
320,192,35188,1,0,0:0:0:0:
64,192,35235,1,0,0:0:0:0:
448,192,35282,1,0,0:0:0:0:
320,192,35470,1,2,0:0:0:0:
448,192,35470,1,0,0:0:0:0:
192,192,35516,1,0,0:0:0:0:
448,192,35563,1,0,0:0:0:0:
64,192,35610,1,0,0:0:0:0:
320,192,35657,1,0,0:0:0:0:
320,192,35845,1,2,0:0:0:0:
448,192,35845,1,0,0:0:0:0:
64,192,35891,1,0,0:0:0:0:
448,192,35938,1,0,0:0:0:0:
192,192,35985,1,0,0:0:0:0:
320,192,36032,1,0,0:0:0:0:
320,192,36126,1,0,0:0:0:0:
64,192,36220,128,2,36337:0:0:0:0:
448,192,36220,1,0,0:0:0:0:
192,192,36266,128,0,36360:0:0:0:0:
320,192,36313,128,0,36384:0:0:0:0:
448,192,36360,128,0,36407:0:0:0:0:
64,192,36407,1,0,0:0:0:0:
64,192,36501,1,0,0:0:0:0:
192,192,36595,1,2,0:0:0:0:
320,192,36595,1,0,0:0:0:0:
448,192,36688,1,0,0:0:0:0:
448,192,36782,128,0,36876:0:0:0:0:
320,192,36829,128,0,36876:0:0:0:0:
64,192,36876,1,0,0:0:0:0:
192,192,36970,1,2,0:0:0:0:
320,192,36970,1,0,0:0:0:0:
448,192,37063,128,0,37157:0:0:0:0:
320,192,37110,128,0,37157:0:0:0:0:
64,192,37157,1,0,0:0:0:0:
192,192,37251,1,2,0:0:0:0:
320,192,37251,1,0,0:0:0:0:
448,192,37345,128,0,37438:0:0:0:0:
320,192,37391,128,0,37438:0:0:0:0:
64,192,37438,1,0,0:0:0:0:
192,192,37532,1,2,0:0:0:0:
320,192,37532,1,0,0:0:0:0:
448,192,37626,1,0,0:0:0:0:
64,192,37720,128,2,37782:0:0:0:0:
192,192,37720,128,0,37813:0:0:0:0:
320,192,37720,128,0,37845:0:0:0:0:
448,192,37813,128,0,37876:0:0:0:0:
64,192,37876,128,0,37970:0:0:0:0:
192,192,37907,128,0,38001:0:0:0:0:
320,192,37938,128,0,38032:0:0:0:0:
448,192,37970,128,0,38063:0:0:0:0:
64,192,38095,1,2,0:0:0:0:
192,192,38095,1,0,0:0:0:0:
320,192,38157,1,0,0:0:0:0:
192,192,38220,1,0,0:0:0:0:
320,192,38282,1,0,0:0:0:0:
64,192,38345,1,0,0:0:0:0:
320,192,38470,1,2,0:0:0:0:
448,192,38470,1,0,0:0:0:0:
192,192,38532,1,0,0:0:0:0:
448,192,38595,1,0,0:0:0:0:
192,192,38657,1,0,0:0:0:0:
320,192,38720,1,0,0:0:0:0:
64,192,38845,1,2,0:0:0:0:
192,192,38845,1,0,0:0:0:0:
448,192,38907,1,0,0:0:0:0:
64,192,38970,1,0,0:0:0:0:
448,192,39032,1,0,0:0:0:0:
192,192,39095,1,0,0:0:0:0:
64,192,39220,128,2,39313:0:0:0:0:
448,192,39220,1,0,0:0:0:0:
320,192,39313,128,0,39407:0:0:0:0:
448,192,39407,128,0,39501:0:0:0:0:
192,192,39501,128,0,39595:0:0:0:0:
320,192,39595,128,0,39688:0:0:0:0:
64,192,39688,128,0,39782:0:0:0:0:
192,192,39782,128,0,39876:0:0:0:0:
64,192,39876,1,2,0:0:0:0:
448,192,39876,1,0,0:0:0:0:
320,192,39923,1,2,0:0:0:0:
64,192,39970,1,8,0:0:0:0:
192,192,39970,1,0,0:0:0:0:
448,192,39970,1,0,0:0:0:0:
320,192,40063,1,0,0:0:0:0:
64,192,40157,1,2,0:0:0:0:
192,192,40157,1,0,0:0:0:0:
64,192,40251,1,8,0:0:0:0:
320,192,40251,1,0,0:0:0:0:
448,192,40251,1,0,0:0:0:0:
192,192,40345,1,0,0:0:0:0:
320,192,40438,1,2,0:0:0:0:
448,192,40438,1,0,0:0:0:0:
64,192,40532,1,8,0:0:0:0:
192,192,40532,1,0,0:0:0:0:
320,192,40532,1,0,0:0:0:0:
64,192,40626,1,2,0:0:0:0:
448,192,40626,1,0,0:0:0:0:
192,192,40720,128,2,40845:0:0:0:0:
320,192,40720,128,4,40813:0:0:0:0:
448,192,40720,128,0,40782:0:0:0:0:
64,192,40813,128,0,40876:0:0:0:0:
448,192,40876,128,0,40970:0:0:0:0:
320,192,40907,128,0,41001:0:0:0:0:
192,192,40938,128,0,41032:0:0:0:0:
64,192,40970,128,0,41063:0:0:0:0:
320,192,41095,128,0,41188:0:0:0:0:
448,192,41095,128,0,41188:0:0:0:0:
192,192,41141,1,0,0:0:0:0:
64,192,41188,1,0,0:0:0:0:
320,192,41235,1,0,0:0:0:0:
448,192,41282,1,0,0:0:0:0:
448,192,41376,1,0,0:0:0:0:
64,192,41470,1,8,0:0:0:0:
192,192,41470,1,0,0:0:0:0:
320,192,41470,1,0,0:0:0:0:
448,192,41516,1,0,0:0:0:0:
192,192,41563,1,0,0:0:0:0:
320,192,41610,1,0,0:0:0:0:
64,192,41657,1,0,0:0:0:0:
64,192,41751,1,0,0:0:0:0:
320,192,41845,128,0,41938:0:0:0:0:
448,192,41845,128,0,41938:0:0:0:0:
192,192,41891,1,0,0:0:0:0:
64,192,41938,1,0,0:0:0:0:
448,192,42032,1,0,0:0:0:0:
448,192,42126,1,0,0:0:0:0:
192,192,42220,128,2,42407:0:0:0:0:
320,192,42220,1,0,0:0:0:0:
64,192,42266,128,0,42407:0:0:0:0:
448,192,42407,128,0,42454:0:0:0:0:
64,192,42501,128,0,42548:0:0:0:0:
320,192,42595,128,0,42688:0:0:0:0:
448,192,42595,128,0,42688:0:0:0:0:
192,192,42688,128,0,42735:0:0:0:0:
192,192,42782,128,0,42829:0:0:0:0:
320,192,42876,128,0,42923:0:0:0:0:
64,192,42970,1,8,0:0:0:0:
192,192,42970,128,0,43016:0:0:0:0:
448,192,42970,1,0,0:0:0:0:
448,192,43063,128,0,43110:0:0:0:0:
192,192,43157,128,0,43204:0:0:0:0:
64,192,43251,128,0,43298:0:0:0:0:
320,192,43345,128,0,43438:0:0:0:0:
448,192,43345,128,0,43438:0:0:0:0:
192,192,43438,128,0,43485:0:0:0:0:
64,192,43532,128,0,43626:0:0:0:0:
192,192,43579,128,0,43673:0:0:0:0:
320,192,43626,128,0,43720:0:0:0:0:
64,192,43720,128,2,43813:0:0:0:0:
448,192,43720,128,0,43813:0:0:0:0:
192,192,43907,128,2,44001:0:0:0:0:
320,192,43907,128,0,44001:0:0:0:0:
64,192,44095,128,0,44188:0:0:0:0:
192,192,44095,128,0,44188:0:0:0:0:
448,192,44141,1,0,0:0:0:0:
320,192,44188,1,0,0:0:0:0:
192,192,44235,1,0,0:0:0:0:
64,192,44282,1,0,0:0:0:0:
64,192,44376,1,0,0:0:0:0:
192,192,44470,1,8,0:0:0:0:
320,192,44470,1,0,0:0:0:0:
448,192,44470,1,0,0:0:0:0:
64,192,44516,1,0,0:0:0:0:
448,192,44563,1,0,0:0:0:0:
192,192,44610,1,0,0:0:0:0:
320,192,44657,1,0,0:0:0:0:
320,192,44751,1,0,0:0:0:0:
64,192,44845,128,0,44938:0:0:0:0:
192,192,44845,128,0,44938:0:0:0:0:
448,192,44891,1,0,0:0:0:0:
320,192,44938,1,0,0:0:0:0:
192,192,45032,1,0,0:0:0:0:
192,192,45126,1,0,0:0:0:0:
64,192,45220,1,2,0:0:0:0:
448,192,45220,128,0,45313:0:0:0:0:
320,192,45313,128,0,45407:0:0:0:0:
64,192,45407,128,0,45501:0:0:0:0:
192,192,45501,128,0,45595:0:0:0:0:
320,192,45595,128,0,45688:0:0:0:0:
448,192,45595,128,0,45688:0:0:0:0:
64,192,45688,128,0,45782:0:0:0:0:
192,192,45688,128,0,45782:0:0:0:0:
320,192,45782,128,0,45876:0:0:0:0:
448,192,45782,128,0,45876:0:0:0:0:
64,192,45876,128,0,45970:0:0:0:0:
192,192,45970,1,8,0:0:0:0:
320,192,45970,128,0,46032:0:0:0:0:
448,192,45970,128,0,46032:0:0:0:0:
64,192,46095,128,0,46157:0:0:0:0:
192,192,46095,128,0,46157:0:0:0:0:
64,192,46220,128,0,46282:0:0:0:0:
448,192,46220,128,0,46282:0:0:0:0:
320,192,46345,128,0,46407:0:0:0:0:
448,192,46345,128,0,46407:0:0:0:0:
192,192,46470,128,0,46532:0:0:0:0:
320,192,46470,128,0,46532:0:0:0:0:
64,192,46595,128,0,46657:0:0:0:0:
192,192,46595,128,0,46657:0:0:0:0:
192,192,46720,128,4,46845:0:0:0:0:
320,192,46720,128,2,46813:0:0:0:0:
448,192,46720,128,0,46782:0:0:0:0:
64,192,46813,128,0,46876:0:0:0:0:
448,192,46876,128,0,46970:0:0:0:0:
320,192,46907,128,0,47001:0:0:0:0:
192,192,46938,128,0,47032:0:0:0:0:
64,192,46970,128,0,47063:0:0:0:0:
320,192,47095,128,0,47188:0:0:0:0:
448,192,47095,128,0,47188:0:0:0:0:
192,192,47141,1,0,0:0:0:0:
64,192,47188,1,0,0:0:0:0:
448,192,47235,1,0,0:0:0:0:
320,192,47282,1,0,0:0:0:0:
320,192,47376,1,0,0:0:0:0:
64,192,47470,1,8,0:0:0:0:
192,192,47470,1,0,0:0:0:0:
448,192,47470,1,0,0:0:0:0:
320,192,47516,1,0,0:0:0:0:
192,192,47563,1,0,0:0:0:0:
448,192,47610,1,0,0:0:0:0:
64,192,47657,1,0,0:0:0:0:
64,192,47751,1,0,0:0:0:0:
320,192,47845,128,0,47938:0:0:0:0:
448,192,47845,128,0,47938:0:0:0:0:
192,192,47891,1,0,0:0:0:0:
64,192,47938,1,0,0:0:0:0:
320,192,48032,1,0,0:0:0:0:
320,192,48126,1,0,0:0:0:0:
64,192,48220,128,2,48407:0:0:0:0:
448,192,48220,1,0,0:0:0:0:
192,192,48266,128,0,48407:0:0:0:0:
320,192,48407,128,0,48454:0:0:0:0:
192,192,48501,128,0,48548:0:0:0:0:
320,192,48595,128,0,48688:0:0:0:0:
448,192,48595,128,0,48688:0:0:0:0:
64,192,48688,128,0,48735:0:0:0:0:
64,192,48782,128,0,48829:0:0:0:0:
448,192,48876,128,0,48923:0:0:0:0:
64,192,48970,128,8,49016:0:0:0:0:
192,192,48970,1,0,0:0:0:0:
320,192,48970,1,0,0:0:0:0:
320,192,49063,128,0,49110:0:0:0:0:
64,192,49157,128,0,49204:0:0:0:0:
192,192,49251,128,0,49298:0:0:0:0:
320,192,49345,128,0,49438:0:0:0:0:
448,192,49345,128,0,49438:0:0:0:0:
192,192,49438,128,0,49485:0:0:0:0:
64,192,49532,128,0,49626:0:0:0:0:
192,192,49579,128,0,49673:0:0:0:0:
320,192,49626,128,0,49720:0:0:0:0:
64,192,49720,1,2,0:0:0:0:
192,192,49720,1,4,0:0:0:0:
448,192,49720,1,8,0:0:0:0:
64,192,49813,1,2,0:0:0:0:
192,192,49813,1,0,0:0:0:0:
320,192,49907,1,2,0:0:0:0:
448,192,49907,1,0,0:0:0:0:
64,192,50001,1,2,0:0:0:0:
192,192,50001,1,0,0:0:0:0:
64,192,50095,1,2,0:0:0:0:
320,192,50095,1,8,0:0:0:0:
448,192,50095,1,4,0:0:0:0:
320,192,50188,1,2,0:0:0:0:
448,192,50188,1,0,0:0:0:0:
64,192,50282,1,2,0:0:0:0:
192,192,50282,1,0,0:0:0:0:
320,192,50376,1,2,0:0:0:0:
448,192,50376,1,0,0:0:0:0:
64,192,50470,1,2,0:0:0:0:
192,192,50470,1,8,0:0:0:0:
448,192,50470,1,4,0:0:0:0:
64,192,50563,1,2,0:0:0:0:
192,192,50563,1,0,0:0:0:0:
320,192,50657,1,2,0:0:0:0:
448,192,50657,1,0,0:0:0:0:
64,192,50751,1,2,0:0:0:0:
192,192,50751,1,0,0:0:0:0:
320,192,50845,1,10,0:0:0:0:
448,192,50845,1,4,0:0:0:0:
64,192,50891,1,2,0:0:0:0:
192,192,50891,1,0,0:0:0:0:
320,192,50938,1,2,0:0:0:0:
448,192,50938,1,0,0:0:0:0:
64,192,50985,1,2,0:0:0:0:
192,192,50985,1,0,0:0:0:0:
320,192,51032,1,2,0:0:0:0:
448,192,51032,1,0,0:0:0:0:
64,192,51079,1,2,0:0:0:0:
192,192,51079,1,0,0:0:0:0:
320,192,51126,1,2,0:0:0:0:
448,192,51126,1,0,0:0:0:0:
64,192,51173,1,2,0:0:0:0:
192,192,51173,1,0,0:0:0:0:
320,192,51220,128,0,51595:0:0:0:0:
64,192,51595,1,0,0:0:0:0:
192,192,51595,1,0,0:0:0:0:
448,192,51641,1,0,0:0:0:0:
192,192,51688,1,0,0:0:0:0:
320,192,51735,1,0,0:0:0:0:
64,192,51782,1,0,0:0:0:0:
448,192,51782,1,0,0:0:0:0:
192,192,51876,1,0,0:0:0:0:
320,192,51876,1,0,0:0:0:0:
64,192,51970,1,0,0:0:0:0:
448,192,51970,1,0,0:0:0:0:
320,192,52063,1,0,0:0:0:0:
64,192,52157,128,0,52251:0:0:0:0:
192,192,52157,1,0,0:0:0:0:
448,192,52251,1,0,0:0:0:0:
192,192,52345,128,0,52438:0:0:0:0:
320,192,52345,1,0,0:0:0:0:
64,192,52438,1,0,0:0:0:0:
320,192,52532,128,0,52626:0:0:0:0:
448,192,52532,1,0,0:0:0:0:
192,192,52626,1,0,0:0:0:0:
64,192,52720,1,2,0:0:0:0:
320,192,52720,1,4,0:0:0:0:
448,192,52720,1,0,0:0:0:0:
192,192,52813,1,0,0:0:0:0:
320,192,52907,1,0,0:0:0:0:
448,192,52907,1,0,0:0:0:0:
320,192,53001,1,0,0:0:0:0:
64,192,53095,1,2,0:0:0:0:
192,192,53095,1,0,0:0:0:0:
448,192,53095,1,0,0:0:0:0:
320,192,53188,1,0,0:0:0:0:
64,192,53282,1,0,0:0:0:0:
192,192,53282,1,0,0:0:0:0:
192,192,53376,1,0,0:0:0:0:
64,192,53470,1,2,0:0:0:0:
320,192,53470,1,0,0:0:0:0:
448,192,53470,1,0,0:0:0:0:
320,192,53563,1,0,0:0:0:0:
192,192,53657,1,0,0:0:0:0:
448,192,53657,1,0,0:0:0:0:
192,192,53751,1,0,0:0:0:0:
64,192,53845,1,2,0:0:0:0:
320,192,53845,1,0,0:0:0:0:
448,192,53845,1,0,0:0:0:0:
448,192,53938,1,0,0:0:0:0:
64,192,54032,1,0,0:0:0:0:
192,192,54032,1,0,0:0:0:0:
64,192,54126,1,0,0:0:0:0:
192,192,54220,1,2,0:0:0:0:
320,192,54220,1,0,0:0:0:0:
448,192,54220,1,0,0:0:0:0:
64,192,54313,1,0,0:0:0:0:
320,192,54407,1,0,0:0:0:0:
448,192,54407,1,0,0:0:0:0:
192,192,54501,1,0,0:0:0:0:
64,192,54595,1,2,0:0:0:0:
448,192,54595,1,0,0:0:0:0:
192,192,54688,1,0,0:0:0:0:
320,192,54688,1,0,0:0:0:0:
64,192,54782,1,0,0:0:0:0:
320,192,54876,1,0,0:0:0:0:
448,192,54876,1,0,0:0:0:0:
64,192,54970,1,2,0:0:0:0:
192,192,54970,1,0,0:0:0:0:
448,192,54970,1,0,0:0:0:0:
320,192,55063,1,0,0:0:0:0:
192,192,55157,1,0,0:0:0:0:
64,192,55251,1,2,0:0:0:0:
320,192,55251,1,0,0:0:0:0:
448,192,55251,1,0,0:0:0:0:
192,192,55345,1,0,0:0:0:0:
448,192,55345,1,0,0:0:0:0:
320,192,55438,1,0,0:0:0:0:
64,192,55532,1,2,0:0:0:0:
192,192,55532,1,0,0:0:0:0:
448,192,55532,1,0,0:0:0:0:
192,192,55626,1,0,0:0:0:0:
64,192,55720,1,2,0:0:0:0:
320,192,55720,1,0,0:0:0:0:
448,192,55720,1,0,0:0:0:0:
192,192,55813,1,0,0:0:0:0:
320,192,55907,1,0,0:0:0:0:
448,192,55907,1,0,0:0:0:0:
448,192,56001,1,0,0:0:0:0:
64,192,56095,1,2,0:0:0:0:
192,192,56095,1,0,0:0:0:0:
320,192,56095,1,0,0:0:0:0:
64,192,56188,1,0,0:0:0:0:
192,192,56282,1,0,0:0:0:0:
448,192,56282,1,0,0:0:0:0:
320,192,56376,1,0,0:0:0:0:
64,192,56470,1,2,0:0:0:0:
192,192,56470,1,0,0:0:0:0:
448,192,56470,1,0,0:0:0:0:
448,192,56563,1,0,0:0:0:0:
64,192,56657,1,0,0:0:0:0:
320,192,56657,1,0,0:0:0:0:
64,192,56751,1,0,0:0:0:0:
192,192,56845,1,2,0:0:0:0:
320,192,56845,1,0,0:0:0:0:
448,192,56845,1,0,0:0:0:0:
320,192,56938,1,0,0:0:0:0:
64,192,57032,1,0,0:0:0:0:
192,192,57032,1,0,0:0:0:0:
192,192,57126,1,0,0:0:0:0:
64,192,57220,1,2,0:0:0:0:
320,192,57220,1,0,0:0:0:0:
448,192,57220,1,0,0:0:0:0:
192,192,57313,1,0,0:0:0:0:
320,192,57407,1,0,0:0:0:0:
448,192,57407,1,0,0:0:0:0:
64,192,57501,1,0,0:0:0:0:
192,192,57501,1,0,0:0:0:0:
64,192,57595,1,2,0:0:0:0:
320,192,57595,1,0,0:0:0:0:
448,192,57595,1,0,0:0:0:0:
320,192,57688,1,0,0:0:0:0:
64,192,57782,1,0,0:0:0:0:
192,192,57782,1,0,0:0:0:0:
320,192,57876,1,0,0:0:0:0:
448,192,57876,1,0,0:0:0:0:
64,192,57970,1,2,0:0:0:0:
192,192,57970,1,0,0:0:0:0:
448,192,57970,1,0,0:0:0:0:
192,192,58063,1,0,0:0:0:0:
320,192,58063,1,0,0:0:0:0:
448,192,58157,1,0,0:0:0:0:
192,192,58251,1,2,0:0:0:0:
320,192,58251,1,0,0:0:0:0:
64,192,58345,1,0,0:0:0:0:
320,192,58345,1,0,0:0:0:0:
448,192,58345,1,0,0:0:0:0:
64,192,58438,1,0,0:0:0:0:
192,192,58532,1,2,0:0:0:0:
320,192,58532,1,0,0:0:0:0:
448,192,58532,1,0,0:0:0:0:
448,192,58626,1,0,0:0:0:0:
64,192,58720,1,2,0:0:0:0:
192,192,58720,1,4,0:0:0:0:
320,192,58720,1,0,0:0:0:0:
448,192,58813,1,0,0:0:0:0:
64,192,58907,1,0,0:0:0:0:
192,192,58907,1,0,0:0:0:0:
64,192,59001,1,0,0:0:0:0:
192,192,59095,1,2,0:0:0:0:
320,192,59095,1,0,0:0:0:0:
448,192,59095,1,0,0:0:0:0:
64,192,59188,1,0,0:0:0:0:
320,192,59282,1,0,0:0:0:0:
448,192,59282,1,0,0:0:0:0:
448,192,59376,1,0,0:0:0:0:
64,192,59470,1,2,0:0:0:0:
192,192,59470,1,0,0:0:0:0:
320,192,59470,1,0,0:0:0:0:
64,192,59563,1,0,0:0:0:0:
192,192,59657,1,0,0:0:0:0:
448,192,59657,1,0,0:0:0:0:
448,192,59751,1,0,0:0:0:0:
64,192,59845,1,2,0:0:0:0:
192,192,59845,1,0,0:0:0:0:
320,192,59845,1,0,0:0:0:0:
192,192,59938,1,0,0:0:0:0:
320,192,60032,1,0,0:0:0:0:
448,192,60032,1,0,0:0:0:0:
320,192,60126,1,0,0:0:0:0:
64,192,60220,1,2,0:0:0:0:
192,192,60220,1,0,0:0:0:0:
448,192,60220,1,0,0:0:0:0:
320,192,60313,1,0,0:0:0:0:
64,192,60407,1,0,0:0:0:0:
192,192,60407,1,0,0:0:0:0:
448,192,60501,1,0,0:0:0:0:
192,192,60595,1,2,0:0:0:0:
320,192,60595,1,0,0:0:0:0:
64,192,60688,1,0,0:0:0:0:
448,192,60688,1,0,0:0:0:0:
320,192,60782,1,0,0:0:0:0:
64,192,60876,1,0,0:0:0:0:
192,192,60876,1,0,0:0:0:0:
192,192,60970,1,2,0:0:0:0:
320,192,60970,1,0,0:0:0:0:
448,192,60970,1,0,0:0:0:0:
64,192,61063,1,0,0:0:0:0:
448,192,61157,1,0,0:0:0:0:
64,192,61251,1,2,0:0:0:0:
192,192,61251,1,0,0:0:0:0:
320,192,61251,1,0,0:0:0:0:
192,192,61345,1,0,0:0:0:0:
448,192,61345,1,0,0:0:0:0:
64,192,61438,1,0,0:0:0:0:
192,192,61532,1,2,0:0:0:0:
320,192,61532,1,0,0:0:0:0:
448,192,61532,1,0,0:0:0:0:
448,192,61626,1,0,0:0:0:0:
64,192,61720,128,2,61907:0:0:0:0:
192,192,61720,128,4,61907:0:0:0:0:
320,192,61720,128,0,61907:0:0:0:0:
448,192,61907,1,0,0:0:0:0:
64,192,62001,128,2,62188:0:0:0:0:
192,192,62001,128,4,62188:0:0:0:0:
320,192,62001,128,0,62188:0:0:0:0:
448,192,62188,1,0,0:0:0:0:
192,192,62282,128,2,62376:0:0:0:0:
320,192,62282,128,4,62376:0:0:0:0:
448,192,62282,128,0,62376:0:0:0:0:
64,192,62376,1,0,0:0:0:0:
64,192,62470,128,2,62657:0:0:0:0:
320,192,62470,128,4,62657:0:0:0:0:
448,192,62470,128,0,62657:0:0:0:0:
192,192,62657,1,0,0:0:0:0:
64,192,62751,128,4,62938:0:0:0:0:
320,192,62751,128,2,62938:0:0:0:0:
448,192,62751,128,0,62938:0:0:0:0:
192,192,62938,1,0,0:0:0:0:
64,192,63032,128,4,63126:0:0:0:0:
192,192,63032,128,2,63126:0:0:0:0:
448,192,63032,128,0,63126:0:0:0:0:
320,192,63126,1,0,0:0:0:0:
64,192,63220,1,2,0:0:0:0:
448,192,63220,128,0,63313:0:0:0:0:
192,192,63313,128,0,63407:0:0:0:0:
320,192,63407,128,0,63501:0:0:0:0:
448,192,63501,128,0,63595:0:0:0:0:
64,192,63595,1,0,0:0:0:0:
192,192,63641,1,0,0:0:0:0:
320,192,63688,1,0,0:0:0:0:
448,192,63735,1,0,0:0:0:0:
192,192,63782,1,0,0:0:0:0:
448,192,63970,1,0,0:0:0:0:
320,192,64016,1,0,0:0:0:0:
192,192,64063,1,0,0:0:0:0:
64,192,64110,1,0,0:0:0:0:
320,192,64157,1,0,0:0:0:0:
64,192,64345,1,0,0:0:0:0:
192,192,64391,1,0,0:0:0:0:
320,192,64438,1,0,0:0:0:0:
448,192,64485,1,0,0:0:0:0:
192,192,64532,1,0,0:0:0:0:
320,192,64626,1,0,0:0:0:0:
64,192,64720,1,0,0:0:0:50:LR_Kick Beat Med Vfast.wav
192,192,64720,128,0,64907:0:0:0:0:
448,192,64907,1,0,0:0:0:70:LR_Drum Rim Fast.wav
192,192,65095,1,0,0:0:0:50:LR_Kick Beat Med Vfast.wav
320,192,65095,128,0,65282:0:0:0:0:
64,192,65282,1,0,0:0:0:70:LR_Drum Rim Fast.wav
64,192,65470,128,0,65657:0:0:0:50:LR_Kick Beat Med Vfast.wav
192,192,65470,1,0,0:0:0:0:
448,192,65657,1,0,0:0:0:70:LR_Drum Rim Fast.wav
64,192,65845,1,0,0:0:0:50:LR_Kick Beat Med Vfast.wav
320,192,65845,128,0,66032:0:0:0:0:
192,192,66032,1,0,0:0:0:70:LR_Drum Rim Fast.wav
320,192,66220,1,0,0:0:0:50:LR_Kick Beat Med Vfast.wav
448,192,66220,128,0,66407:0:0:0:0:
64,192,66407,128,0,66595:0:0:0:70:LR_Drum Rim Fast.wav
192,192,66595,128,0,66782:0:0:0:50:LR_Kick Beat Med Vfast.wav
320,192,66595,1,0,0:0:0:0:
448,192,66782,1,0,0:0:0:70:LR_Drum Rim Fast.wav
320,192,66829,1,0,0:0:0:70:LR_Drum Rim Fast.wav
64,192,66876,1,0,0:0:0:70:LR_Drum Rim Fast.wav
192,192,66923,1,0,0:0:0:70:LR_Drum Rim Fast.wav
320,192,66970,1,0,0:0:0:50:LR_Kick Beat Med Vfast.wav
448,192,66970,1,0,0:0:0:0:
64,192,67063,1,0,0:0:0:50:LR_Kick Beat Med Vfast.wav
192,192,67063,1,0,0:0:0:0:
320,192,67157,1,0,0:0:0:70:LR_Drum Rim Fast.wav
64,192,67251,1,0,0:0:0:70:LR_Drum Rim Fast.wav
448,192,67251,1,0,0:0:0:0:
192,192,67345,1,0,0:0:0:50:LR_Kick Beat Med Vfast.wav
320,192,67438,1,0,0:0:0:50:LR_Kick Beat Med Vfast.wav
448,192,67438,1,0,0:0:0:0:
64,192,67532,1,0,0:0:0:70:LR_Drum Rim Fast.wav
192,192,67532,1,0,0:0:0:0:
448,192,67626,1,0,0:0:0:70:LR_Drum Rim Fast.wav
64,192,67720,128,2,68001:0:0:0:0:
192,192,67720,1,4,0:0:0:0:
320,192,67720,128,0,68001:0:0:0:0:
448,192,67907,1,0,0:0:0:0:
192,192,68001,1,0,0:0:0:0:
64,192,68095,128,0,68282:0:0:0:0:
192,192,68095,128,0,68282:0:0:0:0:
448,192,68188,1,0,0:0:0:0:
448,192,68282,1,0,0:0:0:0:
64,192,68376,1,0,0:0:0:0:
192,192,68470,128,8,68751:0:0:0:0:
320,192,68470,1,0,0:0:0:0:
448,192,68470,128,0,68751:0:0:0:0:
64,192,68657,1,0,0:0:0:0:
320,192,68751,1,0,0:0:0:0:
64,192,68798,1,0,0:0:0:0:
320,192,68845,128,0,69032:0:0:0:0:
448,192,68845,128,0,69032:0:0:0:0:
192,192,68938,1,0,0:0:0:0:
192,192,69032,1,0,0:0:0:0:
320,192,69126,1,0,0:0:0:0:
64,192,69220,128,2,69595:0:0:0:0:
448,192,69220,1,0,0:0:0:0:
320,192,69407,1,0,0:0:0:0:
320,192,69501,1,0,0:0:0:0:
320,192,69595,128,0,69970:0:0:0:0:
64,192,69688,1,0,0:0:0:0:
192,192,69782,1,0,0:0:0:0:
192,192,69876,1,0,0:0:0:0:
64,192,69970,1,8,0:0:0:0:
192,192,69970,128,0,70345:0:0:0:0:
448,192,69970,1,0,0:0:0:0:
320,192,70063,1,0,0:0:0:0:
448,192,70157,1,0,0:0:0:0:
448,192,70251,1,0,0:0:0:0:
448,192,70345,128,0,70438:0:0:0:0:
320,192,70438,128,0,70532:0:0:0:0:
64,192,70532,128,0,70626:0:0:0:0:
192,192,70626,128,0,70720:0:0:0:0:
320,192,70720,1,0,0:0:0:50:LR_Kick Beat Med Vfast.wav
448,192,70720,128,0,70907:0:0:0:0:
64,192,70907,1,0,0:0:0:70:LR_Drum Rim Fast.wav
192,192,71095,128,0,71282:0:0:0:50:LR_Kick Beat Med Vfast.wav
448,192,71095,1,0,0:0:0:0:
320,192,71282,1,0,0:0:0:70:LR_Drum Rim Fast.wav
64,192,71376,1,0,0:0:0:0:
320,192,71470,1,0,0:0:0:50:LR_Kick Beat Med Vfast.wav
448,192,71470,128,0,71657:0:0:0:0:
64,192,71657,1,0,0:0:0:70:LR_Drum Rim Fast.wav
192,192,71845,128,0,72032:0:0:0:50:LR_Kick Beat Med Vfast.wav
448,192,71845,1,0,0:0:0:0:
320,192,72032,1,0,0:0:0:70:LR_Drum Rim Fast.wav
64,192,72220,128,0,72407:0:0:0:50:LR_Kick Beat Med Vfast.wav
192,192,72220,1,0,0:0:0:0:
448,192,72407,128,0,72595:0:0:0:70:LR_Drum Rim Fast.wav
192,192,72595,128,0,72782:0:0:0:50:LR_Kick Beat Med Vfast.wav
320,192,72595,1,0,0:0:0:0:
448,192,72782,1,0,0:0:0:70:LR_Drum Rim Fast.wav
320,192,72829,1,0,0:0:0:70:LR_Drum Rim Fast.wav
64,192,72876,1,0,0:0:0:70:LR_Drum Rim Fast.wav
192,192,72923,1,0,0:0:0:70:LR_Drum Rim Fast.wav
320,192,72970,1,0,0:0:0:50:LR_Kick Beat Med Vfast.wav
448,192,72970,1,0,0:0:0:0:
64,192,73063,1,0,0:0:0:50:LR_Kick Beat Med Vfast.wav
192,192,73063,1,0,0:0:0:0:
320,192,73157,1,0,0:0:0:70:LR_Drum Rim Fast.wav
64,192,73251,1,0,0:0:0:70:LR_Drum Rim Fast.wav
448,192,73251,1,0,0:0:0:0:
192,192,73345,1,0,0:0:0:50:LR_Kick Beat Med Vfast.wav
320,192,73438,1,0,0:0:0:50:LR_Kick Beat Med Vfast.wav
448,192,73438,1,0,0:0:0:0:
64,192,73532,1,0,0:0:0:70:LR_Drum Rim Fast.wav
192,192,73532,1,0,0:0:0:0:
320,192,73626,1,0,0:0:0:70:LR_Drum Rim Fast.wav
64,192,73720,128,4,73907:0:0:0:0:
192,192,73720,1,2,0:0:0:0:
448,192,73720,128,0,73907:0:0:0:0:
320,192,73907,1,0,0:0:0:0:
320,192,74095,1,0,0:0:0:0:
64,192,74282,1,0,0:0:0:0:
64,192,74470,128,4,74657:0:0:0:0:
192,192,74470,128,2,74657:0:0:0:0:
448,192,74470,1,0,0:0:0:0:
320,192,74657,1,0,0:0:0:0:
448,192,74704,1,0,0:0:0:0:
64,192,74751,1,0,0:0:0:0:
192,192,74798,1,0,0:0:0:0:
320,192,74845,1,0,0:0:0:0:
320,192,74938,1,0,0:0:0:0:
320,192,75032,1,0,0:0:0:0:
192,192,75126,1,0,0:0:0:0:
64,192,75220,1,2,0:0:0:0:
320,192,75220,128,4,75407:0:0:0:0:
448,192,75220,128,0,75407:0:0:0:0:
192,192,75407,1,0,0:0:0:0:
64,192,75454,1,0,0:0:0:0:
320,192,75501,1,0,0:0:0:0:
192,192,75548,1,0,0:0:0:0:
448,192,75595,1,0,0:0:0:0:
448,192,75688,1,0,0:0:0:0:
64,192,75782,1,0,0:0:0:0:
64,192,75876,1,0,0:0:0:0:
192,192,75970,1,8,0:0:0:0:
320,192,75970,1,0,0:0:0:0:
448,192,75970,1,0,0:0:0:0:
64,192,76157,128,2,77095:0:0:0:0:
192,192,76157,1,4,0:0:0:0:
448,192,76157,128,0,77095:0:0:0:0:
320,192,76907,1,0,0:0:0:0:
192,192,77001,1,0,0:0:0:0:
320,192,77095,128,0,77376:0:0:0:0:
64,192,77470,128,4,77657:0:0:0:0:
192,192,77470,128,2,77657:0:0:0:0:
448,192,77470,128,0,77563:0:0:0:0:
320,192,77657,1,0,0:0:0:0:
64,192,77751,128,2,77845:0:0:0:0:
320,192,77751,128,4,77938:0:0:0:0:
448,192,77751,128,0,77938:0:0:0:0:
192,192,77938,1,0,0:0:0:0:
64,192,78032,128,4,78220:0:0:0:0:
192,192,78032,128,2,78220:0:0:0:0:
320,192,78032,128,0,78126:0:0:0:0:
448,192,78220,1,0,0:0:0:0:
192,192,78313,128,2,78407:0:0:0:0:
320,192,78313,128,4,78501:0:0:0:0:
448,192,78313,128,0,78501:0:0:0:0:
64,192,78501,1,0,0:0:0:0:
64,192,78595,128,2,78782:0:0:0:0:
448,192,78595,1,0,0:0:0:0:
320,192,78782,128,0,78970:0:0:0:0:
64,192,78970,128,2,79157:0:0:0:0:
192,192,78970,128,4,79157:0:0:0:0:
448,192,78970,128,0,79063:0:0:0:0:
320,192,79157,1,0,0:0:0:0:
192,192,79251,128,4,79345:0:0:0:0:
320,192,79251,128,2,79438:0:0:0:0:
448,192,79251,128,0,79438:0:0:0:0:
64,192,79438,1,0,0:0:0:0:
64,192,79532,128,2,79720:0:0:0:0:
192,192,79532,128,4,79720:0:0:0:0:
320,192,79532,128,0,79626:0:0:0:0:
448,192,79720,1,0,0:0:0:0:
64,192,79813,128,4,79907:0:0:0:0:
320,192,79813,128,2,80001:0:0:0:0:
448,192,79813,128,0,80001:0:0:0:0:
192,192,80001,1,0,0:0:0:0:
192,192,80095,128,2,80282:0:0:0:0:
448,192,80095,1,0,0:0:0:0:
64,192,80282,1,0,0:0:0:0:
448,192,80329,1,0,0:0:0:0:
320,192,80376,1,0,0:0:0:0:
192,192,80423,1,0,0:0:0:0:
64,192,80470,128,4,80563:0:0:0:0:
320,192,80470,128,2,80657:0:0:0:0:
448,192,80470,128,0,80657:0:0:0:0:
192,192,80657,1,0,0:0:0:0:
64,192,80751,128,2,80938:0:0:0:0:
192,192,80751,128,4,80938:0:0:0:0:
448,192,80751,128,0,80845:0:0:0:0:
320,192,80938,1,0,0:0:0:0:
192,192,81032,128,4,81126:0:0:0:0:
320,192,81032,128,2,81220:0:0:0:0:
448,192,81032,128,0,81220:0:0:0:0:
64,192,81220,1,0,0:0:0:0:
64,192,81313,128,2,81501:0:0:0:0:
192,192,81313,128,4,81501:0:0:0:0:
320,192,81313,128,0,81407:0:0:0:0:
448,192,81501,1,0,0:0:0:0:
64,192,81595,1,2,0:0:0:0:
448,192,81595,128,0,81782:0:0:0:0:
64,192,81782,128,0,81970:0:0:0:0:
192,192,81970,128,2,82063:0:0:0:0:
320,192,81970,128,4,82157:0:0:0:0:
448,192,81970,128,0,82157:0:0:0:0:
64,192,82157,1,0,0:0:0:0:
64,192,82251,128,4,82438:0:0:0:0:
192,192,82251,128,2,82438:0:0:0:0:
448,192,82251,128,0,82345:0:0:0:0:
320,192,82438,1,0,0:0:0:0:
64,192,82532,128,2,82626:0:0:0:0:
320,192,82532,128,4,82720:0:0:0:0:
448,192,82532,128,0,82720:0:0:0:0:
192,192,82720,1,0,0:0:0:0:
64,192,82813,128,4,83001:0:0:0:0:
192,192,82813,128,2,83001:0:0:0:0:
320,192,82813,128,0,82907:0:0:0:0:
448,192,83001,1,0,0:0:0:0:
64,192,83095,1,2,0:0:0:0:
448,192,83095,1,0,0:0:0:0:
64,192,83188,1,2,0:0:0:0:
192,192,83188,1,0,0:0:0:0:
320,192,83282,1,2,0:0:0:0:
448,192,83282,1,0,0:0:0:0:
192,192,83376,1,2,0:0:0:0:
320,192,83376,1,0,0:0:0:0:
64,192,83470,1,4,0:0:0:0:
192,192,83470,1,2,0:0:0:0:
448,192,83470,1,0,0:0:0:0:
320,192,83563,1,0,0:0:0:0:
64,192,83657,1,2,0:0:0:0:
192,192,83657,1,0,0:0:0:0:
320,192,83751,1,0,0:0:0:0:
64,192,83845,1,2,0:0:0:0:
192,192,83845,1,0,0:0:0:0:
320,192,83938,1,0,0:0:0:0:
64,192,84032,1,2,0:0:0:0:
192,192,84032,1,0,0:0:0:0:
320,192,84126,1,0,0:0:0:0:
64,192,84220,1,2,0:0:0:0:
192,192,84220,1,0,0:0:0:0:
320,192,84313,1,0,0:0:0:0:
64,192,84407,1,2,0:0:0:0:
192,192,84407,1,0,0:0:0:0:
320,192,84501,1,0,0:0:0:0:
64,192,84595,1,2,0:0:0:0:
192,192,84595,1,0,0:0:0:0:
320,192,84688,1,0,0:0:0:0:
64,192,84782,1,2,0:0:0:0:
192,192,84782,1,0,0:0:0:0:
320,192,84829,1,2,0:0:0:0:
448,192,84876,1,2,0:0:0:0:
192,192,84923,1,2,0:0:0:0:
320,192,84970,1,2,0:0:0:0:
448,192,84970,1,4,0:0:0:0:
64,192,85063,1,0,0:0:0:0:
320,192,85157,1,2,0:0:0:0:
448,192,85157,1,0,0:0:0:0:
64,192,85251,1,0,0:0:0:0:
320,192,85345,1,2,0:0:0:0:
448,192,85345,1,0,0:0:0:0:
64,192,85438,1,0,0:0:0:0:
320,192,85532,1,2,0:0:0:0:
448,192,85532,1,0,0:0:0:0:
64,192,85626,1,0,0:0:0:0:
320,192,85720,1,2,0:0:0:0:
448,192,85720,1,0,0:0:0:0:
64,192,85813,1,0,0:0:0:0:
320,192,85907,1,2,0:0:0:0:
448,192,85907,1,0,0:0:0:0:
64,192,86001,1,0,0:0:0:0:
320,192,86095,1,2,0:0:0:0:
448,192,86095,1,0,0:0:0:0:
64,192,86188,1,0,0:0:0:0:
320,192,86282,1,2,0:0:0:0:
448,192,86282,1,0,0:0:0:0:
64,192,86329,1,2,0:0:0:0:
192,192,86376,1,2,0:0:0:0:
320,192,86423,1,2,0:0:0:0:
64,192,86470,1,2,0:0:0:0:
192,192,86470,1,4,0:0:0:0:
320,192,86563,1,2,0:0:0:0:
448,192,86563,1,0,0:0:0:0:
64,192,86657,1,2,0:0:0:0:
192,192,86657,1,0,0:0:0:0:
320,192,86751,1,2,0:0:0:0:
448,192,86751,1,0,0:0:0:0:
64,192,86845,1,2,0:0:0:0:
192,192,86845,1,0,0:0:0:0:
448,192,86845,1,0,0:0:0:0:
64,192,86938,1,2,0:0:0:0:
192,192,86938,1,0,0:0:0:0:
320,192,87032,1,2,0:0:0:0:
448,192,87032,1,0,0:0:0:0:
64,192,87126,1,2,0:0:0:0:
192,192,87126,1,0,0:0:0:0:
64,192,87220,1,2,0:0:0:0:
320,192,87220,1,0,0:0:0:0:
448,192,87220,1,0,0:0:0:0:
320,192,87313,1,2,0:0:0:0:
448,192,87313,1,0,0:0:0:0:
64,192,87407,1,2,0:0:0:0:
192,192,87407,1,0,0:0:0:0:
320,192,87501,1,2,0:0:0:0:
448,192,87501,1,0,0:0:0:0:
64,192,87595,1,2,0:0:0:0:
192,192,87595,1,0,0:0:0:0:
448,192,87595,1,0,0:0:0:0:
64,192,87688,1,2,0:0:0:0:
192,192,87688,1,0,0:0:0:0:
320,192,87782,1,2,0:0:0:0:
448,192,87782,1,0,0:0:0:0:
64,192,87876,1,2,0:0:0:0:
192,192,87876,1,0,0:0:0:0:
64,192,87970,1,10,0:0:0:0:
448,192,87970,1,4,0:0:0:0:
320,192,88016,1,2,0:0:0:0:
192,192,88063,1,2,0:0:0:0:
64,192,88110,1,2,0:0:0:0:
448,192,88157,1,2,0:0:0:0:
320,192,88204,1,2,0:0:0:0:
64,192,88251,1,2,0:0:0:0:
192,192,88298,1,2,0:0:0:0:
320,192,88345,1,10,0:0:0:0:
448,192,88345,1,4,0:0:0:0:
64,192,88391,1,2,0:0:0:0:
192,192,88438,1,2,0:0:0:0:
448,192,88485,1,2,0:0:0:0:
320,192,88532,1,2,0:0:0:0:
64,192,88579,1,2,0:0:0:0:
192,192,88626,1,2,0:0:0:0:
320,192,88673,1,2,0:0:0:0:
64,192,88720,1,10,0:0:0:0:
448,192,88720,1,4,0:0:0:0:
192,192,88766,1,2,0:0:0:0:
320,192,88813,1,2,0:0:0:0:
448,192,88860,1,2,0:0:0:0:
64,192,88907,1,2,0:0:0:0:
192,192,88907,1,0,0:0:0:0:
320,192,88954,1,2,0:0:0:0:
448,192,89001,1,2,0:0:0:0:
64,192,89048,1,2,0:0:0:0:
192,192,89095,1,10,0:0:0:0:
320,192,89095,1,4,0:0:0:0:
448,192,89141,1,2,0:0:0:0:
64,192,89188,1,2,0:0:0:0:
192,192,89235,1,2,0:0:0:0:
320,192,89282,1,0,0:0:0:0:
320,192,89470,128,0,89532:0:0:0:0:
192,192,89470,128,4,89563:0:0:0:0:
64,192,89470,128,2,89595:0:0:0:0:
448,192,89563,128,0,89688:0:0:0:0:
320,192,89657,128,0,89720:0:0:0:0:
192,192,89688,128,0,89751:0:0:0:0:
320,192,89845,1,0,0:0:0:70:LR_Drum Rim Fast.wav
448,192,89845,1,0,0:0:0:0:
64,192,89891,1,0,0:0:0:0:
192,192,89938,1,0,0:0:0:0:
64,192,89985,1,0,0:0:0:0:
320,192,90032,1,0,0:0:0:70:LR_Drum Rim Fast.wav
448,192,90032,1,0,0:0:0:0:
320,192,90220,1,0,0:0:0:70:LR_Drum Rim Fast.wav
448,192,90220,1,0,0:0:0:0:
192,192,90266,1,0,0:0:0:0:
64,192,90313,1,0,0:0:0:0:
320,192,90360,1,0,0:0:0:0:
192,192,90407,128,0,90595:0:0:0:70:LR_Drum Rim Fast.wav
320,192,90595,1,0,0:0:0:70:LR_Drum Rim Fast.wav
448,192,90595,1,0,0:0:0:0:
64,192,90641,1,0,0:0:0:0:
192,192,90688,1,0,0:0:0:0:
448,192,90735,1,0,0:0:0:0:
320,192,90782,1,0,0:0:0:0:
320,192,90876,1,0,0:0:0:0:
192,192,90970,1,0,0:0:0:70:LR_Drum Rim Fast.wav
448,192,90970,1,0,0:0:0:0:
64,192,91016,1,0,0:0:0:0:
320,192,91063,1,0,0:0:0:0:
192,192,91110,1,0,0:0:0:0:
64,192,91157,1,0,0:0:0:0:
448,192,91157,1,0,0:0:0:0:
64,192,91345,1,0,0:0:0:70:LR_Drum Rim Fast.wav
320,192,91345,1,0,0:0:0:0:
448,192,91391,1,0,0:0:0:0:
192,192,91438,1,0,0:0:0:0:
320,192,91485,1,0,0:0:0:0:
64,192,91532,1,0,0:0:0:0:
448,192,91532,1,0,0:0:0:0:
64,192,91720,1,0,0:0:0:70:LR_Drum Rim Fast.wav
192,192,91720,1,0,0:0:0:0:
448,192,91766,1,0,0:0:0:0:
320,192,91813,1,0,0:0:0:0:
64,192,91860,1,0,0:0:0:0:
192,192,91907,1,0,0:0:0:0:
448,192,91954,1,0,0:0:0:0:
320,192,92001,1,0,0:0:0:0:
64,192,92048,1,0,0:0:0:0:
192,192,92095,1,0,0:0:0:70:LR_Drum Rim Fast.wav
448,192,92095,1,0,0:0:0:0:
320,192,92141,1,0,0:0:0:0:
64,192,92188,1,0,0:0:0:0:
192,192,92235,1,0,0:0:0:0:
320,192,92282,1,2,0:0:0:0:
448,192,92282,1,0,0:0:0:0:
64,192,92376,1,2,0:0:0:0:
192,192,92376,1,0,0:0:0:0:
64,192,92470,128,2,92532:0:0:0:0:
192,192,92470,128,4,92563:0:0:0:0:
320,192,92470,128,0,92595:0:0:0:0:
448,192,92563,128,0,92626:0:0:0:0:
64,192,92626,128,0,92720:0:0:0:0:
192,192,92657,128,0,92751:0:0:0:0:
320,192,92688,128,0,92782:0:0:0:0:
448,192,92720,128,0,92813:0:0:0:0:
64,192,92845,128,2,92985:0:0:0:0:
192,192,92845,128,0,92938:0:0:0:0:
320,192,92845,128,0,92891:0:0:0:0:
448,192,92938,1,0,0:0:0:0:
320,192,92985,1,0,0:0:0:0:
192,192,93032,1,0,0:0:0:0:
64,192,93126,1,0,0:0:0:0:
192,192,93220,128,2,93266:0:0:0:0:
320,192,93220,128,0,93313:0:0:0:0:
448,192,93220,128,0,93360:0:0:0:0:
64,192,93313,1,0,0:0:0:0:
192,192,93360,1,0,0:0:0:0:
320,192,93407,1,0,0:0:0:0:
448,192,93501,1,0,0:0:0:0:
64,192,93595,128,2,93735:0:0:0:0:
192,192,93595,128,0,93688:0:0:0:0:
320,192,93595,128,0,93641:0:0:0:0:
448,192,93688,1,0,0:0:0:0:
320,192,93735,1,0,0:0:0:0:
64,192,93782,1,2,0:0:0:0:
192,192,93782,1,0,0:0:0:0:
320,192,93876,1,2,0:0:0:0:
448,192,93876,1,0,0:0:0:0:
64,192,93970,1,2,0:0:0:0:
320,192,93970,1,0,0:0:0:0:
448,192,93970,128,0,94157:0:0:0:0:
192,192,94063,1,0,0:0:0:0:
64,192,94157,1,0,0:0:0:0:
64,192,94251,1,0,0:0:0:0:
192,192,94345,128,2,94532:0:0:0:0:
320,192,94345,1,0,0:0:0:0:
448,192,94345,1,0,0:0:0:0:
320,192,94438,128,0,94626:0:0:0:0:
64,192,94532,128,0,94720:0:0:0:0:
192,192,94720,1,2,0:0:0:0:
320,192,94720,1,0,0:0:0:0:
448,192,94720,128,0,94907:0:0:0:0:
64,192,94813,128,0,94907:0:0:0:0:
192,192,94907,1,0,0:0:0:0:
320,192,95001,1,2,0:0:0:0:
448,192,95001,1,0,0:0:0:0:
64,192,95095,1,2,0:0:0:0:
192,192,95095,1,0,0:0:0:0:
64,192,95188,1,2,0:0:0:0:
192,192,95188,1,0,0:0:0:0:
448,192,95188,1,0,0:0:0:0:
320,192,95282,1,0,0:0:0:0:
64,192,95376,1,2,0:0:0:0:
192,192,95376,1,0,0:0:0:0:
448,192,95470,1,2,0:0:0:0:
320,192,95470,1,4,0:0:0:0:
64,192,95470,1,0,0:0:0:0:
192,192,95563,1,0,0:0:0:0:
448,192,95657,1,2,0:0:0:0:
320,192,95657,1,4,0:0:0:0:
64,192,95657,1,0,0:0:0:0:
192,192,95751,1,0,0:0:0:0:
448,192,95845,1,4,0:0:0:0:
320,192,95845,1,2,0:0:0:0:
64,192,95845,1,0,0:0:0:0:
192,192,95891,1,0,0:0:0:0:
320,192,95938,1,0,0:0:0:0:
448,192,95985,1,0,0:0:0:0:
64,192,96032,1,0,0:0:0:0:
320,192,96126,1,0,0:0:0:0:
448,192,96220,1,2,0:0:0:0:
192,192,96220,1,0,0:0:0:0:
64,192,96220,1,0,0:0:0:0:
320,192,96266,1,0,0:0:0:0:
192,192,96313,1,0,0:0:0:0:
64,192,96360,1,0,0:0:0:0:
448,192,96407,1,0,0:0:0:0:
192,192,96501,1,0,0:0:0:0:
448,192,96595,1,2,0:0:0:0:
320,192,96595,1,0,0:0:0:0:
64,192,96595,1,0,0:0:0:0:
192,192,96641,1,0,0:0:0:0:
320,192,96688,1,0,0:0:0:0:
448,192,96735,1,0,0:0:0:0:
192,192,96782,1,2,0:0:0:0:
64,192,96782,1,0,0:0:0:0:
448,192,96876,1,2,0:0:0:0:
320,192,96876,1,0,0:0:0:0:
448,192,96970,1,2,0:0:0:0:
320,192,96970,1,0,0:0:0:0:
64,192,96970,1,0,0:0:0:0:
192,192,97063,1,0,0:0:0:0:
448,192,97157,1,2,0:0:0:0:
320,192,97157,1,0,0:0:0:0:
64,192,97157,1,0,0:0:0:0:
192,192,97251,1,0,0:0:0:0:
448,192,97345,1,2,0:0:0:0:
320,192,97345,1,0,0:0:0:0:
192,192,97391,1,2,0:0:0:0:
64,192,97391,1,0,0:0:0:0:
448,192,97438,1,2,0:0:0:0:
320,192,97438,1,0,0:0:0:0:
192,192,97532,1,2,0:0:0:0:
64,192,97532,1,0,0:0:0:0:
448,192,97626,1,2,0:0:0:0:
320,192,97626,1,0,0:0:0:0:
64,192,97720,1,2,0:0:0:0:
192,192,97720,128,0,97813:0:0:0:0:
448,192,97813,128,0,97907:0:0:0:0:
64,192,97907,128,0,98001:0:0:0:0:
320,192,97907,128,0,98001:0:0:0:0:
192,192,98001,128,0,98095:0:0:0:0:
64,192,98095,128,0,98188:0:0:0:0:
448,192,98095,128,0,98188:0:0:0:0:
320,192,98188,128,0,98282:0:0:0:0:
64,192,98282,128,0,98376:0:0:0:0:
192,192,98282,128,0,98376:0:0:0:0:
448,192,98376,128,0,98470:0:0:0:0:
64,192,98470,128,4,98532:0:0:0:0:
192,192,98470,128,2,98563:0:0:0:0:
320,192,98470,128,0,98595:0:0:0:0:
448,192,98563,128,0,98626:0:0:0:0:
64,192,98626,128,0,98720:0:0:0:0:
192,192,98657,128,0,98751:0:0:0:0:
320,192,98688,128,0,98782:0:0:0:0:
448,192,98720,128,0,98813:0:0:0:0:
64,192,98845,128,2,98985:0:0:0:0:
192,192,98845,128,0,98938:0:0:0:0:
320,192,98845,128,0,98891:0:0:0:0:
448,192,98938,1,0,0:0:0:0:
320,192,98985,1,0,0:0:0:0:
192,192,99032,1,0,0:0:0:0:
64,192,99126,1,0,0:0:0:0:
192,192,99220,128,2,99266:0:0:0:0:
320,192,99220,128,0,99313:0:0:0:0:
448,192,99220,128,0,99360:0:0:0:0:
64,192,99313,1,0,0:0:0:0:
192,192,99360,1,0,0:0:0:0:
320,192,99407,1,0,0:0:0:0:
448,192,99501,1,0,0:0:0:0:
64,192,99595,128,2,99735:0:0:0:0:
192,192,99595,128,0,99688:0:0:0:0:
320,192,99595,128,0,99641:0:0:0:0:
448,192,99688,1,0,0:0:0:0:
320,192,99735,1,0,0:0:0:0:
64,192,99782,1,2,0:0:0:0:
192,192,99782,1,0,0:0:0:0:
320,192,99876,1,2,0:0:0:0:
448,192,99876,1,0,0:0:0:0:
192,192,99970,1,2,0:0:0:0:
320,192,99970,128,0,100157:0:0:0:0:
448,192,99970,1,0,0:0:0:0:
64,192,100063,1,0,0:0:0:0:
192,192,100157,1,0,0:0:0:0:
192,192,100251,1,0,0:0:0:0:
64,192,100345,128,2,100532:0:0:0:0:
320,192,100345,1,0,0:0:0:0:
448,192,100345,1,0,0:0:0:0:
448,192,100438,128,0,100626:0:0:0:0:
192,192,100532,128,0,100720:0:0:0:0:
64,192,100720,1,2,0:0:0:0:
320,192,100720,128,0,100907:0:0:0:0:
448,192,100720,1,0,0:0:0:0:
192,192,100813,128,0,100907:0:0:0:0:
64,192,100907,1,0,0:0:0:0:
320,192,101001,1,2,0:0:0:0:
448,192,101001,1,0,0:0:0:0:
64,192,101095,1,2,0:0:0:0:
192,192,101095,1,0,0:0:0:0:
64,192,101188,1,2,0:0:0:0:
192,192,101188,1,0,0:0:0:0:
448,192,101188,1,0,0:0:0:0:
320,192,101282,1,0,0:0:0:0:
64,192,101376,1,2,0:0:0:0:
192,192,101376,1,0,0:0:0:0:
192,192,101470,1,4,0:0:0:0:
320,192,101470,1,2,0:0:0:0:
448,192,101470,1,0,0:0:0:0:
64,192,101657,1,4,0:0:0:0:
320,192,101657,1,2,0:0:0:0:
448,192,101657,1,0,0:0:0:0:
192,192,101751,1,2,0:0:0:0:
320,192,101751,1,0,0:0:0:0:
448,192,101751,1,0,0:0:0:0:
64,192,101938,1,2,0:0:0:0:
320,192,101938,1,0,0:0:0:0:
448,192,101938,1,0,0:0:0:0:
320,192,102032,1,2,0:0:0:0:
448,192,102032,1,0,0:0:0:0:
64,192,102126,1,2,0:0:0:0:
192,192,102126,1,0,0:0:0:0:
64,192,102220,1,2,0:0:0:0:
192,192,102220,1,4,0:0:0:0:
448,192,102220,1,0,0:0:0:0:
64,192,102407,1,2,0:0:0:0:
192,192,102407,1,4,0:0:0:0:
320,192,102407,1,0,0:0:0:0:
64,192,102501,1,2,0:0:0:0:
192,192,102501,1,0,0:0:0:0:
448,192,102501,1,0,0:0:0:0:
64,192,102688,1,2,0:0:0:0:
192,192,102688,1,0,0:0:0:0:
320,192,102688,1,0,0:0:0:0:
64,192,102782,1,2,0:0:0:0:
192,192,102782,1,0,0:0:0:0:
320,192,102876,1,2,0:0:0:0:
448,192,102876,1,0,0:0:0:0:
64,192,102970,1,2,0:0:0:0:
320,192,102970,1,4,0:0:0:0:
448,192,102970,1,0,0:0:0:0:
192,192,103016,1,0,0:0:0:0:
448,192,103063,1,0,0:0:0:0:
320,192,103110,1,0,0:0:0:0:
192,192,103157,1,0,0:0:0:0:
64,192,103204,1,0,0:0:0:0:
320,192,103251,1,0,0:0:0:0:
448,192,103298,1,0,0:0:0:0:
64,192,103345,1,0,0:0:0:0:
192,192,103391,1,0,0:0:0:0:
448,192,103438,1,0,0:0:0:0:
320,192,103485,1,0,0:0:0:0:
192,192,103532,1,0,0:0:0:0:
64,192,103579,1,0,0:0:0:0:
448,192,103626,1,0,0:0:0:0:
320,192,103673,1,0,0:0:0:0:
192,192,103720,1,0,0:0:0:0:
448,192,103766,1,0,0:0:0:0:
320,192,103813,1,0,0:0:0:0:
64,192,103860,1,0,0:0:0:0:
192,192,103907,1,0,0:0:0:0:
448,192,103954,1,0,0:0:0:0:
320,192,104001,1,0,0:0:0:0:
192,192,104048,1,0,0:0:0:0:
64,192,104095,128,0,104470:0:0:0:0:
320,192,104188,1,0,0:0:0:0:
192,192,104282,1,0,0:0:0:0:
448,192,104376,1,0,0:0:0:0:
192,192,104470,128,2,104532:0:0:0:0:
448,192,104470,128,0,104782:0:0:0:0:
320,192,104470,128,4,104563:0:0:0:0:
64,192,104563,128,0,104688:0:0:0:0:
192,192,104657,128,0,104720:0:0:0:0:
320,192,104688,128,0,104751:0:0:0:0:
64,192,104845,128,2,104938:0:0:0:0:
192,192,104845,128,4,104938:0:0:0:0:
320,192,104845,1,0,0:0:0:0:
448,192,104891,1,0,0:0:0:0:
320,192,104938,1,0,0:0:0:0:
64,192,104985,1,0,0:0:0:0:
448,192,105032,1,0,0:0:0:0:
192,192,105126,1,0,0:0:0:0:
320,192,105173,1,0,0:0:0:0:
64,192,105220,1,8,0:0:0:0:
192,192,105220,1,0,0:0:0:0:
448,192,105220,1,0,0:0:0:0:
320,192,105266,1,0,0:0:0:0:
448,192,105313,1,0,0:0:0:0:
64,192,105407,1,0,0:0:0:0:
192,192,105454,1,0,0:0:0:0:
320,192,105501,1,0,0:0:0:0:
448,192,105548,1,0,0:0:0:0:
64,192,105595,128,2,105688:0:0:0:0:
192,192,105595,128,0,105688:0:0:0:0:
320,192,105641,1,0,0:0:0:0:
448,192,105688,1,0,0:0:0:0:
64,192,105735,1,0,0:0:0:0:
192,192,105782,1,0,0:0:0:0:
320,192,105829,1,0,0:0:0:0:
448,192,105876,1,0,0:0:0:0:
192,192,105970,128,0,106095:0:0:0:0:
448,192,106016,128,0,106157:0:0:0:0:
320,192,106157,1,0,0:0:0:0:
320,192,106251,1,0,0:0:0:0:
64,192,106345,128,2,106438:0:0:0:0:
192,192,106345,128,0,106438:0:0:0:0:
448,192,106391,1,0,0:0:0:0:
320,192,106438,1,0,0:0:0:0:
192,192,106485,1,0,0:0:0:0:
64,192,106532,1,0,0:0:0:0:
320,192,106626,1,2,0:0:0:0:
448,192,106626,1,0,0:0:0:0:
64,192,106720,1,8,0:0:0:0:
320,192,106720,1,0,0:0:0:0:
448,192,106720,1,0,0:0:0:0:
192,192,106766,1,0,0:0:0:0:
64,192,106813,1,0,0:0:0:0:
320,192,106907,1,0,0:0:0:0:
192,192,106954,1,0,0:0:0:0:
448,192,107001,1,0,0:0:0:0:
320,192,107048,1,0,0:0:0:0:
64,192,107095,128,0,107188:0:0:0:0:
192,192,107095,128,0,107188:0:0:0:0:
320,192,107188,1,0,0:0:0:0:
448,192,107282,128,0,107376:0:0:0:0:
320,192,107329,128,0,107423:0:0:0:0:
192,192,107376,128,0,107470:0:0:0:0:
64,192,107470,1,2,0:0:0:0:
448,192,107470,1,4,0:0:0:0:
64,192,107563,1,2,0:0:0:0:
192,192,107563,1,0,0:0:0:0:
320,192,107657,1,2,0:0:0:0:
448,192,107657,1,0,0:0:0:0:
64,192,107704,1,2,0:0:0:0:
192,192,107704,1,0,0:0:0:0:
320,192,107751,1,2,0:0:0:0:
448,192,107751,1,0,0:0:0:0:
64,192,107845,128,2,107938:0:0:0:0:
192,192,107845,128,4,107938:0:0:0:0:
448,192,107845,1,0,0:0:0:0:
320,192,107938,1,0,0:0:0:0:
448,192,108032,1,0,0:0:0:0:
64,192,108126,1,2,0:0:0:0:
192,192,108126,1,0,0:0:0:0:
320,192,108220,1,2,0:0:0:0:
448,192,108220,1,0,0:0:0:0:
64,192,108313,1,2,0:0:0:0:
320,192,108313,1,0,0:0:0:0:
448,192,108313,1,0,0:0:0:0:
192,192,108407,1,0,0:0:0:0:
64,192,108501,1,2,0:0:0:0:
448,192,108501,1,0,0:0:0:0:
64,192,108595,128,2,108688:0:0:0:0:
192,192,108595,128,0,108688:0:0:0:0:
448,192,108595,1,0,0:0:0:0:
320,192,108688,1,0,0:0:0:0:
64,192,108782,1,2,0:0:0:0:
192,192,108782,1,0,0:0:0:0:
448,192,108782,1,0,0:0:0:0:
64,192,108876,1,0,0:0:0:0:
192,192,108970,1,2,0:0:0:0:
320,192,108970,1,0,0:0:0:0:
448,192,108970,1,0,0:0:0:0:
64,192,109063,1,0,0:0:0:0:
192,192,109157,1,2,0:0:0:0:
320,192,109157,1,0,0:0:0:0:
448,192,109157,1,0,0:0:0:0:
64,192,109251,1,0,0:0:0:0:
192,192,109345,1,2,0:0:0:0:
320,192,109345,1,0,0:0:0:0:
448,192,109345,1,0,0:0:0:0:
64,192,109438,1,0,0:0:0:0:
448,192,109532,1,0,0:0:0:0:
64,192,109626,1,2,0:0:0:0:
192,192,109626,1,0,0:0:0:0:
448,192,109673,1,2,0:0:0:0:
64,192,109720,1,2,0:0:0:0:
320,192,109720,1,0,0:0:0:0:
320,192,109813,1,2,0:0:0:0:
448,192,109813,1,0,0:0:0:0:
64,192,109907,1,2,0:0:0:0:
192,192,109907,1,0,0:0:0:0:
320,192,110001,1,2,0:0:0:0:
448,192,110001,1,0,0:0:0:0:
64,192,110048,1,2,0:0:0:0:
192,192,110095,1,2,0:0:0:0:
448,192,110095,1,0,0:0:0:0:
320,192,110188,1,8,0:0:0:0:
64,192,110235,1,8,0:0:0:0:
320,192,110282,1,8,0:0:0:0:
448,192,110282,1,0,0:0:0:0:
64,192,110376,1,8,0:0:0:0:
192,192,110470,128,4,110595:0:0:0:0:
320,192,110470,128,2,110563:0:0:0:0:
448,192,110470,128,0,110532:0:0:0:0:
64,192,110563,128,0,110626:0:0:0:0:
448,192,110626,128,0,110720:0:0:0:0:
320,192,110657,128,0,110751:0:0:0:0:
192,192,110688,128,0,110782:0:0:0:0:
64,192,110720,128,0,110813:0:0:0:0:
320,192,110845,128,0,110938:0:0:0:0:
448,192,110845,128,0,110938:0:0:0:0:
192,192,110891,1,0,0:0:0:0:
64,192,110938,1,0,0:0:0:0:
320,192,110985,1,0,0:0:0:0:
448,192,111032,1,0,0:0:0:0:
192,192,111126,1,0,0:0:0:0:
320,192,111173,1,0,0:0:0:0:
64,192,111220,1,8,0:0:0:0:
192,192,111220,1,0,0:0:0:0:
448,192,111220,1,0,0:0:0:0:
64,192,111313,1,0,0:0:0:0:
192,192,111407,1,2,0:0:0:0:
320,192,111407,1,0,0:0:0:0:
448,192,111501,1,0,0:0:0:0:
64,192,111548,1,0,0:0:0:0:
192,192,111595,1,2,0:0:0:0:
320,192,111595,128,4,111688:0:0:0:0:
448,192,111595,128,0,111688:0:0:0:0:
64,192,111688,1,0,0:0:0:0:
192,192,111735,1,0,0:0:0:0:
320,192,111782,1,0,0:0:0:0:
448,192,111829,1,0,0:0:0:0:
192,192,111876,1,0,0:0:0:0:
64,192,111970,1,0,0:0:0:0:
448,192,112001,1,0,0:0:0:0:
320,192,112032,1,0,0:0:0:0:
192,192,112063,1,0,0:0:0:0:
64,192,112157,1,2,0:0:0:0:
448,192,112157,1,0,0:0:0:0:
192,192,112251,1,0,0:0:0:0:
448,192,112345,128,0,112438:0:0:0:0:
320,192,112345,128,2,112438:0:0:0:0:
64,192,112438,1,2,0:0:0:0:
192,192,112438,1,0,0:0:0:0:
320,192,112532,1,0,0:0:0:0:
64,192,112626,1,2,0:0:0:0:
448,192,112626,1,0,0:0:0:0:
192,192,112720,1,8,0:0:0:0:
320,192,112720,1,0,0:0:0:0:
448,192,112720,1,0,0:0:0:0:
64,192,112813,1,0,0:0:0:0:
320,192,112860,1,0,0:0:0:0:
192,192,112907,1,0,0:0:0:0:
448,192,112954,1,0,0:0:0:0:
64,192,113001,1,0,0:0:0:0:
320,192,113048,1,0,0:0:0:0:
192,192,113095,1,0,0:0:0:0:
448,192,113141,1,0,0:0:0:0:
64,192,113188,1,0,0:0:0:0:
320,192,113235,1,0,0:0:0:0:
192,192,113282,1,0,0:0:0:0:
448,192,113329,1,0,0:0:0:0:
64,192,113376,1,2,0:0:0:0:
320,192,113376,1,0,0:0:0:0:
192,192,113423,1,2,0:0:0:0:
320,192,113470,1,2,0:0:0:0:
448,192,113470,1,4,0:0:0:0:
64,192,113563,1,2,0:0:0:0:
320,192,113563,1,4,0:0:0:0:
448,192,113563,1,0,0:0:0:0:
192,192,113657,1,0,0:0:0:0:
320,192,113751,1,2,0:0:0:0:
448,192,113751,1,0,0:0:0:0:
64,192,113845,1,2,0:0:0:0:
320,192,113845,1,4,0:0:0:0:
448,192,113845,1,0,0:0:0:0:
192,192,113938,1,0,0:0:0:0:
320,192,114032,1,2,0:0:0:0:
448,192,114032,1,0,0:0:0:0:
192,192,114079,1,2,0:0:0:0:
64,192,114126,1,2,0:0:0:0:
448,192,114126,1,0,0:0:0:0:
320,192,114173,1,2,0:0:0:0:
64,192,114220,1,2,0:0:0:0:
192,192,114220,1,4,0:0:0:0:
448,192,114220,1,0,0:0:0:0:
320,192,114313,1,0,0:0:0:0:
64,192,114407,1,2,0:0:0:0:
192,192,114407,1,4,0:0:0:0:
64,192,114501,1,2,0:0:0:0:
192,192,114501,1,4,0:0:0:0:
448,192,114501,1,0,0:0:0:0:
320,192,114595,1,0,0:0:0:0:
64,192,114688,1,2,0:0:0:0:
192,192,114688,1,4,0:0:0:0:
64,192,114782,1,2,0:0:0:0:
192,192,114782,1,4,0:0:0:0:
448,192,114782,1,0,0:0:0:0:
320,192,114876,1,0,0:0:0:0:
64,192,114970,1,0,0:0:0:50:LR_Kick Beat Med Vfast.wav
192,192,114970,1,0,0:0:0:0:
320,192,115016,1,0,0:0:0:0:
448,192,115016,1,0,0:0:0:0:
64,192,115063,128,0,115157:0:0:0:0:
448,192,115157,128,0,115251:0:0:0:0:
192,192,115251,128,0,115345:0:0:0:0:
320,192,115345,128,0,115438:0:0:0:0:
448,192,115438,128,0,115532:0:0:0:0:
192,192,115532,128,0,115626:0:0:0:0:
320,192,115626,128,0,115720:0:0:0:0:
64,192,115720,128,0,115813:0:0:0:0:
64,192,115970,1,0,0:0:0:50:LR_Kick Beat Med Vfast.wav
448,192,115970,1,0,0:0:0:0:
192,192,116032,1,0,0:0:0:50:LR_Kick Beat Med Vfast.wav
64,192,116095,1,0,0:0:0:70:LR_Drum Rim Fast.wav
320,192,116095,1,0,0:0:0:50:LR_CymbalSSD.wav
448,192,116095,1,0,0:0:0:0:
